0.01,-2.8272038
0.02,-3.9968398
0.03,-2.5934502
0.04,-1.9144071
0.05,-0.87425189
0.06,-3.57455
0.07,-2.7666349
0.08,-1.5073974
0.09,-1.7534903
0.1,-1.7003675
0.11,-3.1903071
0.12,-2.3367567
0.13,-3.2593996
0.14,2.0878442
0.15,-2.9212433
0.16,-2.6824878
0.17,-1.1069099
0.18,-2.4495095
0.19,-0.10192395
0.2,2.036719
0.21,-3.3530235
0.22,-0.54876161
0.23,-3.2036327
0.24,-2.8897248
0.25,-2.2725454
0.26,0.66577827
0.27,-2.3030416
0.28,0.92006083
0.29,-5.1176214
0.3,-3.4141412
0.31,-0.27819632
0.32,-1.9628833
0.33,-4.182035
0.34,-1.4969218
0.35,-0.7129771
0.36,-1.7968885
0.37,-1.4633151
0.38,-2.2065865
0.39,-2.6269766
0.4,0.36621607
0.41,-0.1418624
0.42,-1.0885841
0.43,-1.8556681
0.44,-1.4862776
0.45,-1.4921667
0.46,-3.6641543
0.47,-3.0505616
0.48,-1.904508
0.49,-0.61504694
0.5,-2.0008649
0.51,-3.2861576
0.52,-3.4690114
0.53,-3.0182942
0.54,-2.2895413
0.55,-3.0086447
0.56,-2.4362805
0.57,-2.8921096
0.58,-2.9627514
0.59,-3.8051477
0.6,-3.3997563
0.61,-1.7844796
0.62,-3.974634
0.63,-4.1514645
0.64,-3.1055562
0.65,-2.6345683
0.66,-0.83920352
0.67,-4.1482687
0.68,-1.2550563
0.69,-2.5597673
0.7,-4.6485875
0.71,-2.5211165
0.72,-3.5163341
0.73,0.031393962
0.74,0.37744734
0.75,-1.4143843
0.76,0.32032591
0.77,0.23147514
0.78,-3.4351675
0.79,-1.6092852
0.8,-2.4959718
0.81,-2.3249589
0.82,-3.0360628
0.83,-2.2894919
0.84,0.34081385
0.85,1.8251657
0.86,-3.1672912
0.87,-2.1178863
0.88,-2.843215
0.89,-2.6953161
0.9,-2.739768
0.91,-3.0752273
0.92,-2.5699906
0.93,-1.0226406
0.94,-2.6118745
0.95,-2.1808877
0.96,-3.4270367
0.97,-2.7596141
0.98,0.48354338
0.99,-3.2857246
1,-2.3710604
1.01,-1.0931429
1.02,-3.3865702
1.03,-2.2209282
1.04,-2.416437
1.05,-3.1608662
1.06,-2.8297247
1.07,-2.3295333
1.08,-2.7234793
1.09,-4.3580581
1.1,-2.5400592
1.11,-2.0273012
1.12,-4.1683676
1.13,-3.7824631
1.14,-0.75400452
1.15,-1.6082489
1.16,-2.3438972
1.17,-1.0990084
1.18,1.212097
1.19,-3.4753501
1.2,-4.1222603
1.21,-3.5348764
1.22,1.6731226
1.23,-1.7253563
1.24,-2.1008794
1.25,-0.043893207
1.26,-2.3468404
1.27,-2.0084
1.28,-3.586584
1.29,-0.3846709
1.3,-2.5620211
1.31,1.6132621
1.32,-2.4715876
1.33,-2.6475002
1.34,-3.9544183
1.35,-2.032233
1.36,-3.153214
1.37,-1.6036925
1.38,-3.9156149
1.39,-0.93261328
1.4,0.44063656
1.41,-3.7411147
1.42,-3.9478308
1.43,-1.1443092
1.44,-2.7500664
1.45,-1.6502063
1.46,-1.1569459
1.47,-1.7086942
1.48,-1.0462221
1.49,-3.181191
1.5,-1.8879547
1.51,0.75493006
1.52,-4.2202108
1.53,-3.7890203
1.54,-3.8769665
1.55,-2.8145433
1.56,-0.19329843
1.57,-2.560839
1.58,-4.199997
1.59,-3.1991943
1.6,-2.6998221
1.61,-1.4380945
1.62,-2.6110668
1.63,-3.7942955
1.64,-0.20744396
1.65,-2.3257702
1.66,-1.9488039
1.67,-3.5711742
1.68,-1.4606384
1.69,-2.2231386
1.7,0.37092263
1.71,-0.85995172
1.72,-1.3224697
1.73,-1.2831036
1.74,-2.4474781
1.75,0.11188081
1.76,-1.6369953
1.77,-2.6954824
1.78,-2.648604
1.79,-2.8242309
1.8,0.57146631
1.81,-2.9545713
1.82,-3.6247216
1.83,-1.9285601
1.84,-4.049569
1.85,-2.1158537
1.86,-1.431191
1.87,-3.3741161
1.88,-3.0261182
1.89,-2.4439448
1.9,-3.0484714
1.91,-1.7946523
1.92,1.4322675
1.93,-1.4314642
1.94,-3.6944971
1.95,-2.9147778
1.96,-2.5704299
1.97,0.31351214
1.98,-2.4325808
1.99,-3.1737762
2,-2.2722196
2.01,-3.0032975
2.02,-1.757789
2.03,-2.6778485
2.04,-1.6245657
2.05,-1.7531964
2.06,-4.7282401
2.07,-3.0423454
2.08,-1.6893153
2.09,0.18378265
2.1,-2.0236164
2.11,-3.9025582
2.12,-2.9993091
2.13,-0.06044801
2.14,-3.133943
2.15,-2.9303632
2.16,-2.3001691
2.17,-0.91885933
2.18,-3.6123453
2.19,-2.9451274
2.2,-3.2174073
2.21,-2.3543496
2.22,-2.9061092
2.23,-3.6667109
2.24,-4.2490466
2.25,-2.463566
2.26,-3.5465505
2.27,-1.0007382
2.28,-3.0589352
2.29,0.4929122
2.3,-3.0404491
2.31,-1.8687164
2.32,-2.644073
2.33,0.58364794
2.34,-1.8767018
2.35,-3.130715
2.36,-0.55461892
2.37,-1.9955657
2.38,-1.6618931
2.39,-2.8498643
2.4,-1.5793518
2.41,-1.4304908
2.42,-1.6048188
2.43,-2.0635115
2.44,-0.94866301
2.45,-2.2861194
2.46,-2.2007418
2.47,-3.4619514
2.48,-3.5494722
2.49,-2.8043951
2.5,-3.2031747
2.51,-3.3379331
2.52,-1.3839725
2.53,-3.6506311
2.54,-2.9683187
2.55,-1.0575419
2.56,-2.9809877
2.57,-1.6409141
2.58,-3.1741969
2.59,-2.9307631
2.6,-0.20555937
2.61,-2.5528563
2.62,-3.5442286
2.63,-2.9355977
2.64,-3.545183
2.65,-1.9308342
2.66,-2.7539409
2.67,-0.85856745
2.68,-1.2028019
2.69,-1.3062394
2.7,0.95989552
2.71,-1.3902252
2.72,-0.68304079
2.73,-1.4908026
2.74,-2.9690519
2.75,-4.4345134
2.76,0.73280617
2.77,-2.4561574
2.78,-0.84273021
2.79,-1.7944979
2.8,1.2932418
2.81,-0.48871125
2.82,-2.7388544
2.83,-2.4990918
2.84,-2.516366
2.85,0.20971841
2.86,-2.1252558
2.87,-2.1498714
2.88,1.7032985
2.89,-1.7977233
2.9,-3.7067763
2.91,-0.081415901
2.92,-0.26729594
2.93,-0.54504988
2.94,-0.27926539
2.95,-0.22225797
2.96,-0.003822158
2.97,0.76080049
2.98,-1.6495585
2.99,-1.18337
3,-0.94011279
3.01,1.0384789
3.02,-3.0137188
3.03,-1.0177873
3.04,-1.446366
3.05,-1.8172188
3.06,-0.92086729
3.07,-1.6062071
3.08,-2.2106486
3.09,-0.007744105
3.1,-1.6856843
3.11,-1.1107048
3.12,-1.5286207
3.13,-0.69663175
3.14,-0.66996002
3.15,0.34636422
3.16,-1.1877027
3.17,-1.0486816
3.18,-1.3339586
3.19,-0.39396759
3.2,-1.1872677
3.21,-2.8682231
3.22,-2.8214743
3.23,-1.2429257
3.24,-0.43501603
3.25,1.539725
3.26,-1.0698261
3.27,-2.0161413
3.28,1.0901261
3.29,-1.3641879
3.3,-0.38873205
3.31,-1.8783454
3.32,-0.59108065
3.33,-0.92223942
3.34,-0.86388399
3.35,-0.10230775
3.36,-0.4388492
3.37,-0.10092689
3.38,-1.9929359
3.39,-1.2131216
3.4,-2.1867986
3.41,-2.4437412
3.42,-1.3148334
3.43,1.1561045
3.44,1.5961585
3.45,-1.2156697
3.46,-0.10865179
3.47,-1.0069979
3.48,-0.48893806
3.49,-1.59714
3.5,-0.6308586
3.51,-0.06038321
3.52,-1.1859918
3.53,-0.10495488
3.54,-1.3720408
3.55,-0.95308651
3.56,0.95254421
3.57,-0.19805968
3.58,-3.21923
3.59,-1.1329274
3.6,-0.89285071
3.61,-1.3159493
3.62,-0.51965677
3.63,-0.95511114
3.64,-1.0319625
3.65,1.2547587
3.66,-0.23010496
3.67,0.012086119
3.68,-0.91881015
3.69,-0.67505641
3.7,-1.2072645
3.71,0.004984126
3.72,-2.3542225
3.73,-1.0176085
3.74,-2.1884996
3.75,-1.3055077
3.76,-0.22388221
3.77,-1.3658
3.78,0.47219157
3.79,-0.28831798
3.8,-1.3279821
3.81,0.9950129
3.82,1.336423
3.83,-1.2093627
3.84,-1.1623472
3.85,-0.4161479
3.86,-2.206744
3.87,-1.4500439
3.88,-1.7161611
3.89,-0.41958818
3.9,-0.73444951
3.91,-0.32918131
3.92,-0.90039821
3.93,-0.54084692
3.94,-3.1203766
3.95,-0.79183755
3.96,0.13234815
3.97,-1.0091784
3.98,-1.0521378
3.99,-1.9193714
4,-1.768876
4.01,0.63337173
4.02,0.35565427
4.03,-0.91339806
4.04,-0.40769178
4.05,0.7601432
4.06,-1.443734
4.07,-0.49438913
4.08,-1.7795838
4.09,-1.901992
4.1,1.388189
4.11,-1.254324
4.12,0.28295422
4.13,-1.335748
4.14,-2.0873716
4.15,-1.260775
4.16,-2.0797689
4.17,-1.5352499
4.18,-1.5965333
4.19,-1.1388419
4.2,0.77127376
4.21,-2.1521446
4.22,-1.5425554
4.23,-1.0353187
4.24,0.87590309
4.25,-1.4421692
4.26,-0.70759326
4.27,0.77107384
4.28,-0.50987536
4.29,-1.5361242
4.3,-0.097229139
4.31,-1.1195902
4.32,-0.34038575
4.33,-0.40750954
4.34,-0.59714899
4.35,0.29764817
4.36,1.5530036
4.37,-2.6363705
4.38,-1.5491463
4.39,-1.0560698
4.4,-1.6371035
4.41,0.83964803
4.42,-1.78186
4.43,-1.4397975
4.44,1.079747
4.45,-1.4004279
4.46,0.44589319
4.47,0.73754363
4.48,-1.3255297
4.49,-1.3055061
4.5,0.23522148
4.51,-1.9284921
4.52,0.39183736
4.53,-0.37347391
4.54,-0.63688243
4.55,1.4332603
4.56,-2.0125325
4.57,-0.3995739
4.58,1.1733239
4.59,1.1384505
4.6,-2.0905523
4.61,0.46147594
4.62,-0.74823971
4.63,-0.69093799
4.64,-1.4849153
4.65,-0.48395617
4.66,1.1082198
4.67,-1.1990888
4.68,0.036977097
4.69,-0.24462611
4.7,0.34691389
4.71,-1.0586637
4.72,0.15795489
4.73,-0.28917279
4.74,-0.091148605
4.75,-1.4875808
4.76,-1.0322446
4.77,-1.1034482
4.78,1.069939
4.79,-0.57266378
4.8,-2.6510043
4.81,-0.46563052
4.82,-0.83719107
4.83,-0.60125118
4.84,-0.51104739
4.85,-1.076401
4.86,-1.2941168
4.87,-0.83304221
4.88,-0.7326228
4.89,-2.1426799
4.9,-0.86596501
4.91,-0.90855614
4.92,-3.1931125
4.93,-0.61100916
4.94,0.53619897
4.95,-2.2332599
4.96,-1.779959
4.97,-2.4809922
4.98,-0.91243389
4.99,-1.0980196
5,-2.7029409
5.01,0.71141435
5.02,-3.9960376
5.03,-0.59031419
5.04,-1.014383
5.05,-1.5524706
5.06,1.1211686
5.07,-1.5108036
5.08,-4.0453618
5.09,-3.6470895
5.1,-1.965967
5.11,-2.877246
5.12,-2.4567347
5.13,-2.9841942
5.14,-4.3892833
5.15,-3.8441616
5.16,-3.1617614
5.17,-2.6531003
5.18,-3.364291
5.19,-0.44417696
5.2,0.58666154
5.21,-4.0773425
5.22,-4.2163462
5.23,-1.9174373
5.24,-3.7474092
5.25,-4.8189782
5.26,-2.6341413
5.27,-3.4158686
5.28,-0.14734247
5.29,-2.5358845
5.3,-1.673338
5.31,-2.1328135
5.32,-1.7581256
5.33,-1.8723937
5.34,-3.1626514
5.35,-3.8245053
5.36,0.12001611
5.37,-2.8378335
5.38,-3.5104914
5.39,-2.6715656
5.4,-1.6938842
5.41,-3.8014779
5.42,-2.14077
5.43,-2.3446449
5.44,-3.4711799
5.45,-0.95872554
5.46,-2.6801696
5.47,-1.9022377
5.48,-1.2827783
5.49,-3.3060861
5.5,-1.3756634
5.51,-1.3754633
5.52,-2.8797288
5.53,-2.7814176
5.54,-1.9551177
5.55,-2.6475409
5.56,-1.3446846
5.57,-2.6699806
5.58,-1.8427955
5.59,-4.0672055
5.6,-2.1327923
5.61,-2.1751075
5.62,-2.2514478
5.63,-2.6560547
5.64,-2.0336278
5.65,-1.709227
5.66,0.028333263
5.67,-1.669313
5.68,-2.1743672
5.69,-3.0858653
5.7,-3.9367191
5.71,1.3275269
5.72,0.46045908
5.73,-4.88291
5.74,-2.784858
5.75,-4.6227061
5.76,-2.0794018
5.77,-4.1351843
5.78,-3.6256035
5.79,-4.4959355
5.8,-0.65719842
5.81,-2.3572145
5.82,-1.427927
5.83,-0.96739846
5.84,-3.3603157
5.85,-2.8258375
5.86,-1.1376536
5.87,-3.3804266
5.88,-2.3388206
5.89,-1.68801
5.9,-0.8352039
5.91,-2.4976956
5.92,-2.3301949
5.93,-3.7494029
5.94,-2.7927732
5.95,-2.0876062
5.96,-0.46552215
5.97,-3.3314212
5.98,-2.7346108
5.99,-4.6903852
6,-4.5644925
6.01,-3.4292935
6.02,0.58479003
6.03,-1.1155229
6.04,-1.546983
6.05,-1.1011512
6.06,-2.9511364
6.07,-0.42116396
6.08,-1.1509732
6.09,-2.389767
6.1,-1.9591578
6.11,1.6897012
6.12,-3.5472225
6.13,-3.1739803
6.14,-2.6376868
6.15,-3.2367884
6.16,-1.3756111
6.17,-4.0385577
6.18,-3.3967578
6.19,-3.3653215
6.2,0.1529562
6.21,-3.5640282
6.22,-0.30630047
6.23,-4.5302209
6.24,-2.3383724
6.25,-2.3717176
6.26,-3.2872741
6.27,-0.86153917
6.28,-3.0046407
6.29,-3.8332818
6.3,-2.4894149
6.31,-2.6920245
6.32,-3.3196961
6.33,-1.473962
6.34,-4.0588233
6.35,-1.088811
6.36,-3.0925401
6.37,-2.499002
6.38,-3.2649574
6.39,0.26047597
6.4,-2.791658
6.41,-2.8520895
6.42,-2.0275126
6.43,-3.2714779
6.44,-3.6927542
6.45,-0.55308739
6.46,-3.1540306
6.47,0.26912621
6.48,-2.8424348
6.49,-2.0171033
6.5,-2.7961887
6.51,-1.0486537
6.52,-2.1779947
6.53,-4.8436345
6.54,-4.4577241
6.55,-3.8412803
6.56,-2.437036
6.57,-3.0446536
6.58,-3.3465093
6.59,-2.1003403
6.6,-1.3528765
6.61,-3.935122
6.62,-0.94825699
6.63,-2.0360385
6.64,-2.9979515
6.65,-1.9822098
6.66,-1.9896258
6.67,-2.9979155
6.68,-1.9273526
6.69,-2.0832493
6.7,-3.9413794
6.71,-1.8492696
6.72,-2.7592954
6.73,-2.9449639
6.74,0.29123999
6.75,-4.099779
6.76,-2.9650098
6.77,-2.0026534
6.78,-2.445759
6.79,-1.7110015
6.8,1.5555753
6.81,-3.6473116
6.82,-2.8414887
6.83,-3.4622691
6.84,-3.7427594
6.85,-1.7173913
6.86,-2.7460485
6.87,-1.0801627
6.88,1.0509821
6.89,-2.9375376
6.9,-1.1780584
6.91,-2.1265467
6.92,-1.9336129
6.93,-1.9859264
6.94,-1.7881537
6.95,-2.2005218
6.96,-1.9450974
6.97,-3.3526947
6.98,-1.9816164
6.99,-3.1744673
7,-1.8096106
7.01,-3.6030082
7.02,-2.7127176
7.03,-4.3630304
7.04,-4.9075656
7.05,-2.8816742
7.06,-3.2701226
7.07,-1.5518604
7.08,-1.0518275
7.09,-2.1019768
7.1,3.0914132
7.11,1.5847327
7.12,-1.9949547
7.13,-2.259699
7.14,-2.9183714
7.15,-1.5176072
7.16,1.8761986
7.17,-0.68427738
7.18,-4.7531866
7.19,-2.1769125
7.2,-3.2671775
7.21,-3.3632038
7.22,-2.8737325
7.23,-4.6197504
7.24,-1.5170363
7.25,-3.1441189
7.26,-0.10949149
7.27,-4.0325885
7.28,-0.9438187
7.29,-4.4000176
7.3,-0.86193255
7.31,-2.7025533
7.32,-4.2105243
7.33,-1.8788969
7.34,-2.1820681
7.35,-3.4034062
7.36,-3.8200393
7.37,-2.51607
7.38,1.181184
7.39,-2.3273778
7.4,-1.6123944
7.41,-4.2881226
7.42,-0.87126202
7.43,-2.5210155
7.44,-2.616542
7.45,-0.50690174
7.46,-0.007799687
7.47,-3.7604495
7.48,-2.2705638
7.49,-3.3500141
7.5,-1.663991
7.51,-3.8543382
7.52,-3.4772579
7.53,0.15937941
7.54,-2.8492561
7.55,-1.1405998
7.56,-1.1821866
7.57,-1.6701462
7.58,1.5796387
7.59,-1.9492696
7.6,-1.3240625
7.61,-3.6533967
7.62,-2.8708736
7.63,-2.5738109
7.64,-0.30359042
7.65,-1.9060333
7.66,-1.9065495
7.67,-2.0720095
7.68,-2.9378533
7.69,-0.33611698
7.7,-2.5345109
7.71,-1.7981031
7.72,-2.5961362
7.73,-4.0932167
7.74,0.76822367
7.75,-1.5536301
7.76,-2.0653593
7.77,-3.2308054
7.78,-3.1618602
7.79,-3.2417841
7.8,-3.1224855
7.81,-2.7530257
7.82,-2.3488835
7.83,1.7976683
7.84,-1.6618626
7.85,-3.1746057
7.86,-3.2334342
7.87,-4.127337
7.88,-3.5878026
7.89,-2.0492859
7.9,-2.1164135
7.91,-2.4630689
7.92,-1.2026402
7.93,-2.2301595
7.94,-0.56961417
7.95,-3.0313581
7.96,-1.1320792
7.97,-2.0242459
7.98,-1.7127172
7.99,1.3079811
8,0.81809893
8.01,-4.460064
8.02,-4.1210583
8.03,-2.7103066
8.04,-3.9027917
8.05,-0.33237439
8.06,-3.1653717
8.07,-2.9142344
8.08,-2.3541313
8.09,-2.0130697
8.1,-1.6593956
8.11,-2.404365
8.12,-3.4262451
8.13,-1.611714
8.14,-3.0150745
8.15,-3.0166079
8.16,-3.2163265
8.17,-1.9451133
8.18,-4.1688679
8.19,-1.5955973
8.2,-3.2983691
8.21,2.1090443
8.22,-1.8974789
8.23,0.43273693
8.24,-2.0643013
8.25,-0.8315506
8.26,-2.0371191
8.27,0.46155499
8.28,-2.3987016
8.29,-2.1837809
8.3,-2.5248979
8.31,-4.354058
8.32,-0.94822934
8.33,-3.3730637
8.34,-4.0415019
8.35,-3.4062185
8.36,-2.8446093
8.37,-4.0281314
8.38,0.1902286
8.39,0.23524712
8.4,-1.1392766
8.41,-1.7376874
8.42,-3.2712974
8.43,-1.0580884
8.44,0.7852555
8.45,-1.519021
8.46,-3.2874998
8.47,-1.8580297
8.48,-0.51264382
8.49,-2.1737719
8.5,-2.6655402
8.51,0.084056883
8.52,-2.6835952
8.53,-3.3649725
8.54,-1.7966937
8.55,-3.6205798
8.56,-1.7054966
8.57,-2.53001
8.58,-1.0961208
8.59,-0.026767377
8.6,3.2675191
8.61,-3.8405188
8.62,-2.7090996
8.63,-4.1441223
8.64,-2.133307
8.65,-4.0616977
8.66,-3.5196114
8.67,-2.445296
8.68,-1.9845571
8.69,-1.3381821
8.7,-1.7761779
8.71,-2.443283
8.72,-1.259308
8.73,-2.7933913
8.74,-2.2719414
8.75,1.0465351
8.76,-2.5862131
8.77,-2.7940759
8.78,-2.9001971
8.79,-2.7021167
8.8,-1.3163151
8.81,-1.1638676
8.82,-1.6549005
8.83,-2.1448196
8.84,-2.5707434
8.85,-2.8307424
8.86,-4.2100772
8.87,-3.3763921
8.88,-1.1952177
8.89,-1.9689009
8.9,0.59042416
8.91,-2.2861482
8.92,-1.4879823
8.93,-3.5044439
8.94,-2.441962
8.95,-3.9231726
8.96,-1.6264074
8.97,-2.9609334
8.98,-3.4635843
8.99,-4.4149217
9,1.4463467
9.01,-2.6296594
9.02,-1.0526023
9.03,-2.8299649
9.04,-2.822721
9.05,-2.8970181
9.06,-3.5262606
9.07,-2.172029
9.08,-0.60165554
9.09,-0.18262223
9.1,-1.4432126
9.11,-4.0909377
9.12,-1.116359
9.13,-4.5116112
9.14,1.2817281
9.15,-4.227293
9.16,-3.5703315
9.17,-1.8883484
9.18,-2.19578
9.19,-3.6635418
9.2,-4.8245465
9.21,-2.5886267
9.22,-3.6086694
9.23,-1.2264459
9.24,-2.9430579
9.25,-3.0983338
9.26,-0.84823063
9.27,-3.2844278
9.28,-1.2065369
9.29,-3.8968206
9.3,-2.2794461
9.31,-2.6005781
9.32,-1.8472251
9.33,-3.156493
9.34,-0.77453896
9.35,-3.7092523
9.36,-1.5253101
9.37,-1.4131763
9.38,-2.5354764
9.39,-2.313292
9.4,1.7943907
9.41,-2.8416218
9.42,-4.1555058
9.43,-4.3123015
9.44,-4.0541575
9.45,-1.4217899
9.46,-1.1689503
9.47,-1.0435168
9.48,-0.31096368
9.49,1.1000786
9.5,-2.3463507
9.51,-1.5105138
9.52,-3.116012
9.53,-3.9604054
9.54,-4.3428072
9.55,-3.2632777
9.56,-1.9659074
9.57,-1.8719446
9.58,0.40342469
9.59,-2.8133339
9.6,-1.9012302
9.61,-2.5493737
9.62,-2.8013
9.63,0.006682529
9.64,-2.1485124
9.65,-2.5986776
9.66,-2.9371334
9.67,-0.045255295
9.68,-1.7549294
9.69,-3.6551425
9.7,-3.3169622
9.71,-2.5966431
9.72,-4.7319297
9.73,-1.6722301
9.74,-3.3909067
9.75,-2.9517386
9.76,-1.8067202
9.77,0.45014913
9.78,-2.1483256
9.79,-2.4251168
9.8,0.53598152
9.81,-2.8276921
9.82,-3.30845
9.83,-4.8480692
9.84,-2.9345771
9.85,0.32869333
9.86,0.2689289
9.87,-1.8896414
9.88,-3.2023207
9.89,-1.7828577
9.9,-2.1889873
9.91,-2.5846776
9.92,-4.0683567
9.93,-0.97376753
9.94,0.31701043
9.95,-2.0222052
9.96,-2.9930447
9.97,1.9949951
9.98,0.6954639
9.99,-3.19545
10,-2.2524566
10.01,-1.6628111
10.02,-3.3399552
10.03,-3.978977
10.04,-1.8668632
10.05,-4.225504
10.06,-2.5468455
10.07,-3.7593665
10.08,-2.1715905
10.09,-2.163296
10.1,-2.4798937
10.11,-3.2557982
10.12,0.29811073
10.13,-4.4269487
10.14,-2.794226
10.15,-3.770774
10.16,-3.4826267
10.17,-0.48554089
10.18,0.96086975
10.19,-0.86937708
10.2,-2.1819188
10.21,-3.9183
10.22,-3.7549341
10.23,-3.4498607
10.24,-0.72093443
10.25,-2.6736508
10.26,-0.22137184
10.27,-3.5763162
10.28,-2.3415141
10.29,-4.9575699
10.3,-0.58225521
10.31,-2.3990014
10.32,-2.0808331
10.33,-1.7125685
10.34,-3.0581451
10.35,-1.7804525
10.36,-3.1849918
10.37,-0.55757169
10.38,-2.279683
10.39,-0.85073057
10.4,1.4448403
10.41,0.70803163
10.42,-1.5737277
10.43,-3.1233897
10.44,-1.7965668
10.45,-2.2768598
10.46,-0.58654373
10.47,-3.9723705
10.48,-2.1468826
10.49,-0.3268393
10.5,-3.6864112
10.51,-2.9737884
10.52,-2.4283059
10.53,-0.21088497
10.54,-3.7459754
10.55,-1.1982423
10.56,-1.6713633
10.57,-3.7660022
10.58,-2.1257767
10.59,-2.3206169
10.6,-2.3453548
10.61,-2.6856672
10.62,-3.3881576
10.63,-0.58582181
10.64,-3.0607185
10.65,-3.6160963
10.66,-1.0622009
10.67,-2.0264568
10.68,-0.29152013
10.69,-3.1872827
10.7,-0.40285652
10.71,-1.6220586
10.72,0.68332057
10.73,-2.3478648
10.74,-2.7663877
10.75,-2.3630352
10.76,-2.0676069
10.77,-3.0747809
10.78,-1.6707241
10.79,-2.3294382
10.8,-1.5664491
10.81,-2.1781081
10.82,-2.6749663
10.83,-0.15687521
10.84,-2.4769498
10.85,-3.1983776
10.86,-0.99600772
10.87,-1.9153507
10.88,-2.5708554
10.89,-1.931531
10.9,-3.8210029
10.91,-3.8853673
10.92,0.048851024
10.93,-0.65701606
10.94,-1.9776395
10.95,-0.40515305
10.96,-2.9933109
10.97,-1.2401733
10.98,-3.098113
10.99,-3.009767
11,-4.0297533
11.01,-2.9919111
11.02,-3.579994
11.03,-1.8773077
11.04,-2.4621732
11.05,-3.9512328
11.06,-2.1942722
11.07,-3.0217556
11.08,-3.5231948
11.09,-0.75151059
11.1,-1.4427522
11.11,1.1502497
11.12,-3.8796276
11.13,-2.6883663
11.14,-1.7648578
11.15,-0.86317715
11.16,-2.617558
11.17,-4.4028867
11.18,-2.1525005
11.19,-2.7048052
11.2,-1.9846965
11.21,-2.1700832
11.22,-2.4311348
11.23,-2.9231533
11.24,-2.8719821
11.25,-3.5990384
11.26,-1.6404337
11.27,-0.80001662
11.28,-2.7608816
11.29,-3.1167163
11.3,1.4824831
11.31,0.55260079
11.32,-3.8468796
11.33,-2.5235521
11.34,-3.1206576
11.35,-3.8152961
11.36,-0.69576429
11.37,0.19085419
11.38,-2.8488334
11.39,-2.5352373
11.4,1.0146253
11.41,-1.3063914
11.42,-1.0079737
11.43,-2.5972415
11.44,-1.9383937
11.45,-2.9743856
11.46,-1.7896955
11.47,-2.8992949
11.48,-2.9792921
11.49,-1.7842838
11.5,0.56085732
11.51,0.58727662
11.52,-1.258996
11.53,-2.9658038
11.54,-0.83728133
11.55,-3.3795477
11.56,-2.8852524
11.57,-2.2205267
11.58,-0.41022926
11.59,-2.093629
11.6,0.41932568
11.61,-3.6523264
11.62,-2.73993
11.63,1.0237848
11.64,-3.5429506
11.65,-4.4081983
11.66,-3.1838151
11.67,-0.48753171
11.68,-0.33299912
11.69,-4.4155002
11.7,-3.3279077
11.71,-1.6726818
11.72,-2.1323409
11.73,-4.452256
11.74,0.68396458
11.75,-0.10239473
11.76,-0.19624336
11.77,-2.0466126
11.78,-3.7402892
11.79,-1.2073029
11.8,-3.1154276
11.81,-2.7806123
11.82,-2.282041
11.83,-2.6740973
11.84,-3.0287598
11.85,-2.4230408
11.86,-1.6676105
11.87,-1.9536969
11.88,-1.1591641
11.89,0.24738304
11.9,-1.0419113
11.91,1.6402648
11.92,-0.35795911
11.93,-2.5112793
11.94,0.064203507
11.95,-2.1474464
11.96,-2.6062365
11.97,-3.1199033
11.98,-3.7672048
11.99,-4.6192133
12,0.66702494
12.01,-2.4520369
12.02,-3.4039947
12.03,-0.29447578
12.04,-2.4523085
12.05,-0.69881631
12.06,-2.7081307
12.07,-0.013534921
12.08,-2.6847035
12.09,-2.6711798
12.1,-0.1839119
12.11,-2.5541916
12.12,-3.4959194
12.13,-2.6798962
12.14,-2.181712
12.15,-2.2797699
12.16,-3.5100382
12.17,-1.8393745
12.18,-4.5565716
12.19,0.22453981
12.2,-2.3841519
12.21,-3.469428
12.22,-1.9300904
12.23,-2.3261923
12.24,-2.4728141
12.25,-2.1177382
12.26,-2.5125286
12.27,-2.9898787
12.28,-2.5527505
12.29,0.15851556
12.3,-2.9852557
12.31,-2.3634995
12.32,-1.5544732
12.33,-0.35474013
12.34,-3.3662955
12.35,-1.8783507
12.36,-2.3789832
12.37,-2.3451085
12.38,-3.8547136
12.39,-2.2444198
12.4,-2.0742516
12.41,-3.3499185
12.42,-4.1197314
12.43,0.89537808
12.44,-2.171266
12.45,-3.0449298
12.46,-3.3371877
12.47,-2.691529
12.48,-3.9669498
12.49,-1.1635403
12.5,-2.3527342
12.51,1.4604151
12.52,-2.5149322
12.53,-3.726877
12.54,-3.2979109
12.55,1.172224
12.56,-3.359393
12.57,1.5973593
12.58,-1.8512419
12.59,-3.1091226
12.6,-1.5600964
12.61,0.86525753
12.62,-1.7693542
12.63,-1.6282384
12.64,-1.023958
12.65,-3.0262518
12.66,-3.4626602
12.67,-2.5112297
12.68,-2.7120551
12.69,-1.2223386
12.7,-0.096645939
12.71,-0.97142275
12.72,-2.6862219
12.73,-3.987033
12.74,-3.6026158
12.75,-2.5122172
12.76,-3.9378846
12.77,-0.060337827
12.78,-2.5788278
12.79,0.880992
12.8,-2.4655626
12.81,-2.6390659
12.82,-3.124683
12.83,-0.34205061
12.84,-1.5650495
12.85,-2.9535024
12.86,-3.2489695
12.87,-2.9582626
12.88,0.50042543
12.89,-0.28946253
12.9,-2.5872112
12.91,-1.8953114
12.92,0.28138585
12.93,0.89284807
12.94,-3.9473165
12.95,0.56073371
12.96,-3.6456569
12.97,-1.6915301
12.98,-2.9541596
12.99,-3.3662101
13,-3.0051926
13.01,-2.4996833
13.02,-0.99949737
13.03,-2.6672279
13.04,0.35934154
13.05,1.485195
13.06,-3.0440089
13.07,-3.4802699
13.08,-3.720943
13.09,-0.16458532
13.1,1.9053705
13.11,-3.5857216
13.12,-1.6876456
13.13,-2.223417
13.14,-1.5255511
13.15,-1.3532408
13.16,-0.26470628
13.17,-4.5487362
13.18,-1.89882
13.19,-1.4626864
13.2,-0.67558592
13.21,-2.4664227
13.22,-2.0261391
13.23,-2.303798
13.24,-3.9571213
13.25,-1.2436283
13.26,-1.4700534
13.27,-3.3114821
13.28,-3.9312461
13.29,-3.4074342
13.3,-3.7902616
13.31,-3.4148462
13.32,-3.2756514
13.33,-2.6568221
13.34,-2.1330346
13.35,-2.5406745
13.36,-4.0860048
13.37,-3.6720958
13.38,-3.3050092
13.39,-4.3397823
13.4,-1.786433
13.41,-3.9176609
13.42,-1.7003357
13.43,-0.93556975
13.44,-3.1001367
13.45,0.34775304
13.46,-3.2004504
13.47,-3.2443994
13.48,-3.2083584
13.49,-1.0286201
13.5,-2.708432
13.51,-4.5711886
13.52,-3.0660236
13.53,-1.0187332
13.54,-3.1302193
13.55,-1.2172473
13.56,-3.5303861
13.57,-2.2633715
13.58,-4.1667703
13.59,-2.4298686
13.6,-3.7086175
13.61,-2.4560813
13.62,-3.3582973
13.63,-3.2464743
13.64,-3.6234614
13.65,-3.3730938
13.66,-4.1606956
13.67,-3.3194283
13.68,-2.217988
13.69,1.1969014
13.7,-3.9734141
13.71,-1.83307
13.72,-1.4033429
13.73,1.1446048
13.74,-2.8381087
13.75,-3.3352948
13.76,-1.8224927
13.77,-2.531466
13.78,-1.4711163
13.79,-2.3992557
13.8,-2.7730639
13.81,-4.5219271
13.82,-2.2231151
13.83,-2.8893076
13.84,-2.9872272
13.85,-2.2397534
13.86,1.155657
13.87,-1.6758096
13.88,-2.0267389
13.89,-3.0143081
13.9,-4.4994807
13.91,0.55068105
13.92,-3.0118996
13.93,-3.0592972
13.94,-2.6853639
13.95,1.5905942
13.96,-3.095132
13.97,-3.4935139
13.98,-3.1853601
13.99,-2.965125
14,-1.3490352
14.01,-2.4460937
14.02,-1.5380591
14.03,-3.755167
14.04,-3.8883083
14.05,-3.3077296
14.06,-2.3937133
14.07,-3.1127839
14.08,-1.6687034
14.09,-2.3862282
14.1,-1.3697077
14.11,-0.87320577
14.12,-1.1909626
14.13,-2.6749315
14.14,-3.1511333
14.15,-3.391103
14.16,-2.5431206
14.17,0.16599565
14.18,-2.281035
14.19,-1.3972166
14.2,-2.927043
14.21,-2.1476586
14.22,-1.2122019
14.23,-3.5144975
14.24,-2.5666736
14.25,-0.99845396
14.26,-4.2112835
14.27,-0.029386691
14.28,-2.4492629
14.29,-0.34093911
14.3,-2.2209935
14.31,-2.2544638
14.32,1.5579052
14.33,-1.4605887
14.34,-3.8146218
14.35,-3.4229508
14.36,-3.0585088
14.37,-3.6465753
14.38,-3.0272629
14.39,0.80680238
14.4,1.4644645
14.41,-1.8378528
14.42,-2.7637368
14.43,-1.4939637
14.44,-1.1374459
14.45,-0.78726999
14.46,-2.1477989
14.47,-2.0868564
14.48,-2.0153947
14.49,-1.1678578
14.5,-1.4171659
14.51,-2.8855641
14.52,-2.567422
14.53,-3.2647161
14.54,-2.6203817
14.55,-2.6592894
14.56,-3.1748898
14.57,-1.8072051
14.58,-3.8389927
14.59,0.52987965
14.6,-3.670343
14.61,-2.3510915
14.62,-2.4708303
14.63,-1.1617314
14.64,0.65880436
14.65,-2.3747958
14.66,-0.6386225
14.67,-1.9818401
14.68,-1.8460337
14.69,-3.500824
14.7,-2.9623846
14.71,-2.6826614
14.72,-3.220689
14.73,1.9490075
14.74,-0.88408036
14.75,-2.2002189
14.76,-2.6188325
14.77,-2.3839508
14.78,-2.6527832
14.79,-0.4463199
14.8,-1.4981411
14.81,-3.2897357
14.82,-2.9167126
14.83,-0.52141053
14.84,-1.7254097
14.85,-0.64803288
14.86,-1.2283953
14.87,-1.2289845
14.88,-3.2703714
14.89,-0.83920971
14.9,-0.86653334
14.91,-2.6616461
14.92,-4.1257318
14.93,-3.5748414
14.94,-3.203775
14.95,-1.8000881
14.96,-1.1478444
14.97,-2.6334188
14.98,-3.7137388
14.99,-2.1840422
15,-3.031242
15.01,1.5575237
15.02,-1.0485204
15.03,-1.0615911
15.04,-3.4544022
15.05,-4.3241564
15.06,-2.7404501
15.07,-1.6079892
15.08,-0.9132684
15.09,-3.4144861
15.1,-1.4737877
15.11,-1.9920906
15.12,-1.7057727
15.13,-0.70358991
15.14,-4.1521616
15.15,-2.9139871
15.16,-1.9100368
15.17,-4.1409824
15.18,-0.77062441
15.19,-3.6649308
15.2,-3.7448317
15.21,0.46440129
15.22,-0.91257968
15.23,-2.9647912
15.24,-2.7210309
15.25,1.7384911
15.26,-3.3044923
15.27,-1.3891467
15.28,-1.152529
15.29,-3.3960661
15.3,-2.1711873
15.31,-2.413428
15.32,-2.2177445
15.33,-2.1258452
15.34,-3.1270832
15.35,-1.6383635
15.36,-3.833733
15.37,-3.4355511
15.38,-5.3202353
15.39,-3.293576
15.4,-3.3258092
15.41,-1.7886159
15.42,-2.0918619
15.43,-1.5151061
15.44,-4.3750395
15.45,-0.40222618
15.46,-3.2417364
15.47,-1.3047414
15.48,-2.0721989
15.49,-1.6386946
15.5,-2.3586638
15.51,-3.9265784
15.52,-2.7013954
15.53,0.03329606
15.54,-1.3729685
15.55,-3.3291169
15.56,-2.5055108
15.57,-4.1999437
15.58,-3.3504295
15.59,-1.3783223
15.6,-4.1355391
15.61,1.0998587
15.62,-1.3943061
15.63,-0.75036803
15.64,0.74692975
15.65,-0.88324741
15.66,0.28812066
15.67,-3.2634282
15.68,-2.5500119
15.69,-3.7777515
15.7,-3.3436901
15.71,-2.0041069
15.72,-1.3575269
15.73,-2.716798
15.74,-4.3149205
15.75,-3.1112177
15.76,-2.5863712
15.77,-4.2043687
15.78,-2.8398041
15.79,0.33776607
15.8,-2.0260819
15.81,-2.1825948
15.82,-0.51974033
15.83,-3.8651688
15.84,-3.3735747
15.85,0.33624383
15.86,-0.80129211
15.87,-3.9163293
15.88,-1.8340619
15.89,-3.1812397
15.9,-2.8031304
15.91,-2.7260682
15.92,-2.6802068
15.93,-0.35000841
15.94,-0.15354808
15.95,-1.4776907
15.96,-2.0886241
15.97,-1.8690135
15.98,-3.1920579
15.99,-2.8875772
16,-0.18907422
16.01,-2.5305013
16.02,-1.8387752
16.03,0.67410618
16.04,-0.20470097
16.05,-2.0760777
16.06,-3.3538486
16.07,-3.447022
16.08,-1.3772368
16.09,-0.99463422
16.1,-2.074226
16.11,-0.92115684
16.12,-3.0285176
16.13,-3.0546059
16.14,-4.2766349
16.15,1.8307142
16.16,-0.32168553
16.17,-2.032698
16.18,-3.6846412
16.19,-1.826589
16.2,-3.2051375
16.21,-2.3943275
16.22,-3.7935286
16.23,-1.6246023
16.24,1.9534212
16.25,0.040517861
16.26,0.51876786
16.27,-2.1972327
16.28,-2.9610403
16.29,-2.1856733
16.3,-0.85794685
16.31,-2.2999485
16.32,-0.54853931
16.33,-1.5911353
16.34,-2.4402263
16.35,-3.6519856
16.36,-2.3594412
16.37,-0.82272198
16.38,-2.5254969
16.39,0.72865626
16.4,-3.5630883
16.41,-4.1600631
16.42,-4.3314347
16.43,-2.9989868
16.44,-3.0607345
16.45,-2.1042061
16.46,-1.8841991
16.47,-1.26059
16.48,0.34285364
16.49,-0.5644416
16.5,-1.6260756
16.51,0.17579862
16.52,-4.1461397
16.53,-1.6605348
16.54,-2.8430014
16.55,-1.0855614
16.56,-2.3152645
16.57,0.018821116
16.58,-1.6649952
16.59,-3.074698
16.6,1.8866243
16.61,-2.6109089
16.62,-3.3259527
16.63,-1.1281441
16.64,-2.3131751
16.65,-3.7567285
16.66,-3.0677909
16.67,-2.84255
16.68,-2.6164797
16.69,-2.2668842
16.7,-4.2845174
16.71,-3.8325563
16.72,-1.9514729
16.73,-1.9710033
16.74,-3.1368685
16.75,-2.8002313
16.76,-2.3429539
16.77,-4.2040933
16.78,-2.2981627
16.79,-1.4639031
16.8,-0.87198107
16.81,-0.032524267
16.82,-2.3481935
16.83,-1.9370928
16.84,-2.339536
16.85,-1.7654861
16.86,-3.7380942
16.87,-1.2363614
16.88,-3.6767979
16.89,-2.4148894
16.9,-3.558816
16.91,-0.89631969
16.92,-0.13664511
16.93,-2.6915759
16.94,-3.3302789
16.95,-3.5922199
16.96,-1.2260121
16.97,-3.1126059
16.98,-2.5114053
16.99,-3.983415
17,-1.6373834
17.01,0.078107144
17.02,-3.4714599
17.03,-4.1088812
17.04,-3.0546515
17.05,-1.9003751
17.06,-0.22718373
17.07,-1.7859987
17.08,-3.9957124
17.09,-3.7756942
17.1,-2.3854307
17.11,-2.9515391
17.12,-0.90681277
17.13,-2.1735897
17.14,-0.76646054
17.15,-2.5191005
17.16,-2.4612313
17.17,-2.6527438
17.18,-2.969877
17.19,-3.4683481
17.2,-2.5593844
17.21,-2.6109173
17.22,-1.0786026
17.23,-3.0718681
17.24,-0.44969362
17.25,-2.465495
17.26,-2.913634
17.27,-3.7192432
17.28,-2.8239842
17.29,-2.4022448
17.3,-3.0444031
17.31,-4.0632262
17.32,-4.3275095
17.33,-2.6024488
17.34,-0.3610305
17.35,-2.3870485
17.36,-3.8631772
17.37,-2.3070748
17.38,-1.8978787
17.39,-0.91905142
17.4,-1.8496917
17.41,-2.5721508
17.42,-3.1508652
17.43,-2.8415194
17.44,-0.59995208
17.45,-0.45270447
17.46,0.39673089
17.47,-2.7984641
17.48,-2.4682505
17.49,-2.8754065
17.5,-1.7186501
17.51,-2.3968621
17.52,0.70555308
17.53,-3.3516789
17.54,-0.2455458
17.55,-3.4854677
17.56,-2.6844184
17.57,-4.0151092
17.58,-4.2088845
17.59,-1.8904411
17.6,-1.4065018
17.61,-2.2318408
17.62,-3.1079858
17.63,-3.7255159
17.64,-1.9837788
17.65,-3.4200625
17.66,-2.6414736
17.67,-0.68100316
17.68,-1.6705534
17.69,-2.4767493
17.7,-3.0385392
17.71,-1.176273
17.72,-3.4746546
17.73,-2.9752607
17.74,-3.6613794
17.75,-2.3799408
17.76,-5.1506339
17.77,-1.0521127
17.78,-3.9761543
17.79,-1.4308034
17.8,-4.4519078
17.81,-1.2262842
17.82,-4.6536948
17.83,-0.84846665
17.84,1.9247872
17.85,-3.4915775
17.86,-2.4158494
17.87,-0.60862065
17.88,-2.9030524
17.89,-2.7190281
17.9,-0.41896013
17.91,-2.8523301
17.92,-3.7022717
17.93,-2.2123197
17.94,-1.401181
17.95,-2.4607834
17.96,-1.7752721
17.97,-2.6069849
17.98,-3.5955617
17.99,-1.8679757
18,-1.2872351
18.01,-1.9726622
18.02,-2.4845522
18.03,-1.9181909
18.04,-2.8081065
18.05,-4.2605355
18.06,0.85517344
18.07,0.29109701
18.08,-1.6729426
18.09,-1.9405211
18.1,-3.0776599
18.11,-2.3374274
18.12,-2.8399809
18.13,-2.7184134
18.14,-2.865195
18.15,-2.7378617
18.16,-3.1134784
18.17,-3.9878333
18.18,-4.4299334
18.19,-0.47776861
18.2,-4.3498267
18.21,-4.2969871
18.22,-2.3295785
18.23,-4.0653433
18.24,0.44200679
18.25,-2.2220957
18.26,0.45039724
18.27,-4.0702525
18.28,-1.9510606
18.29,-2.5475671
18.3,-3.2367358
18.31,-1.9212148
18.32,-0.39839137
18.33,-2.0797699
18.34,-2.8742687
18.35,-3.5936747
18.36,-3.8452332
18.37,-2.2031916
18.38,-4.1184999
18.39,-1.3567239
18.4,-2.902968
18.41,-4.3622952
18.42,-0.73918391
18.43,-2.9260145
18.44,-0.017860766
18.45,-3.1328586
18.46,-2.1563131
18.47,-0.019159653
18.48,-3.6426155
18.49,-0.26044219
18.5,-3.2362462
18.51,-3.2167996
18.52,-3.0523911
18.53,-3.3641962
18.54,-3.6841505
18.55,-3.8091916
18.56,-0.43825896
18.57,-4.020453
18.58,-4.2459887
18.59,-2.4865693
18.6,-2.6075724
18.61,-1.2268025
18.62,-3.6723961
18.63,-0.75871159
18.64,-1.4224063
18.65,-1.4679019
18.66,-1.5035168
18.67,-3.4213323
18.68,-0.043381429
18.69,1.0142983
18.7,-3.3092705
18.71,-3.6221729
18.72,-2.4475122
18.73,-3.5618627
18.74,-4.0207906
18.75,0.80574078
18.76,-1.3532742
18.77,-1.7082764
18.78,-1.2132989
18.79,-1.0879487
18.8,-0.066926365
18.81,-3.8840707
18.82,-1.593003
18.83,-1.5663314
18.84,-2.5843693
18.85,-2.556639
18.86,-2.0266359
18.87,-0.97521418
18.88,-0.053538872
18.89,-1.3440189
18.9,-2.7452266
18.91,-2.8528431
18.92,-0.14336251
18.93,0.081045772
18.94,-1.1185291
18.95,-4.2363082
18.96,-0.46798226
18.97,-2.1712318
18.98,-3.0523562
18.99,-2.1096525
19,-1.2837741
19.01,-3.6351517
19.02,-0.38486428
19.03,-3.2559109
19.04,-3.4091542
19.05,-3.908891
19.06,-3.0658205
19.07,-2.4004917
19.08,-0.80537322
19.09,-3.6311663
19.1,-2.7167171
19.11,-1.2313942
19.12,-3.5388521
19.13,-4.3698744
19.14,-1.2152622
19.15,-0.62802192
19.16,-0.061311992
19.17,-3.8896193
19.18,-3.7705323
19.19,-2.7927508
19.2,-4.3141284
19.21,-2.8221053
19.22,-4.7895008
19.23,-2.6566371
19.24,-4.3335291
19.25,-2.5449647
19.26,-0.59855417
19.27,-3.1175169
19.28,0.7118383
19.29,-3.0801691
19.3,-2.979533
19.31,-3.2329313
19.32,-3.7746347
19.33,-0.82152834
19.34,-1.8940957
19.35,-3.7358572
19.36,0.85007317
19.37,-2.4399744
19.38,-3.7501831
19.39,-4.421635
19.4,0.28811054
19.41,-1.4166934
19.42,-2.9523682
19.43,-2.2403243
19.44,-0.038466282
19.45,-0.020313138
19.46,-2.557616
19.47,-2.3314908
19.48,-2.2947151
19.49,-2.2834215
19.5,-2.3829376
19.51,1.4078621
19.52,-0.93966312
19.53,-0.44542412
19.54,-2.8505913
19.55,-3.4131971
19.56,1.7393253
19.57,0.24864433
19.58,-1.9740693
19.59,-3.8753679
19.6,-3.0047093
19.61,-3.2358283
19.62,-2.0947608
19.63,-4.2683755
19.64,-2.2488066
19.65,-3.781517
19.66,-2.3017918
19.67,-2.676878
19.68,-0.85738851
19.69,-2.155272
19.7,-3.0811507
19.71,-3.0082835
19.72,-2.4895379
19.73,0.64995005
19.74,1.1075944
19.75,-3.6869883
19.76,-3.0711143
19.77,-3.1145269
19.78,1.1012308
19.79,-0.21516044
19.8,-2.3156011
19.81,0.47946506
19.82,0.92873895
19.83,-4.178696
19.84,-1.546962
19.85,-2.8022775
19.86,-2.0438491
19.87,-0.70271704
19.88,1.649815
19.89,-2.462103
19.9,-3.5969595
19.91,-0.75561759
19.92,-3.7108055
19.93,-3.5126072
19.94,1.7604114
19.95,-2.4289354
19.96,-3.3609942
19.97,-2.4238917
19.98,-1.1228599
19.99,-1.2936522
20,-2.4271675
20.01,-2.7400295
20.02,-1.5451509
20.03,-3.9785576
20.04,-2.8085947
20.05,-4.3935643
20.06,0.1717202
20.07,-2.4232606
20.08,-3.4064716
20.09,-2.5066129
20.1,-2.2987881
20.11,-0.076385348
20.12,-3.3880475
20.13,-2.4647759
20.14,-3.1691928
20.15,-0.59253123
20.16,-2.9963067
20.17,1.1452179
20.18,-4.4714521
20.19,-2.8033661
20.2,-2.6078412
20.21,-2.8023405
20.22,-1.7980748
20.23,-3.3805744
20.24,-3.0090414
20.25,-2.9420062
20.26,-1.6172649
20.27,1.5958143
20.28,-2.5728244
20.29,-1.9219161
20.3,0.35368708
20.31,-2.0253385
20.32,-1.274314
20.33,-1.7353452
20.34,-3.9534327
20.35,-2.3635048
20.36,0.010177914
20.37,-1.7728402
20.38,-3.2277693
20.39,-3.260267
20.4,3.3511363
20.41,-1.8709912
20.42,-2.565952
20.43,-2.1269252
20.44,-3.2323111
20.45,-2.5218919
20.46,-4.0451
20.47,-2.6244338
20.48,-0.22284629
20.49,-1.5090713
20.5,-0.49699131
20.51,-1.8020042
20.52,-0.1101939
20.53,-3.0361952
20.54,-3.8093533
20.55,-3.1557581
20.56,-3.2689192
20.57,-2.4516135
20.58,-3.039906
20.59,-1.8903496
20.6,-3.7862362
20.61,-2.3743006
20.62,-4.1528015
20.63,-1.6617565
20.64,-3.7342429
20.65,-0.083344807
20.66,-1.5789487
20.67,-2.2474515
20.68,-4.3019819
20.69,-1.7970355
20.7,-3.447086
20.71,-3.3091241
20.72,-2.6556869
20.73,-0.45673593
20.74,-3.9070449
20.75,-1.5386207
20.76,-2.093099
20.77,-0.90594063
20.78,-0.77145634
20.79,0.071752509
20.8,-3.3649594
20.81,-3.6164508
20.82,-4.4068889
20.83,-2.5310641
20.84,-2.6714565
20.85,-0.46674646
20.86,-2.7616018
20.87,0.84142569
20.88,-1.1650594
20.89,-2.9347198
20.9,-0.5992207
20.91,-3.2343927
20.92,-2.8242587
20.93,-0.70331089
20.94,-2.4738947
20.95,-2.6179815
20.96,-2.2820828
20.97,-1.8828568
20.98,-2.2131483
20.99,-2.9728724
21,-2.627841
21.01,-1.2428902
21.02,-2.6667844
21.03,-1.6125874
21.04,-2.3817315
21.05,-3.4672612
21.06,-2.4037825
21.07,-1.4893103
21.08,-3.1750692
21.09,-4.429281
21.1,-2.5844298
21.11,-2.9543637
21.12,-3.4966875
21.13,-1.6583281
21.14,-2.4293272
21.15,-1.1501052
21.16,-2.8618225
21.17,-3.5416143
21.18,-2.8476783
21.19,-2.3404799
21.2,-2.3279045
21.21,-3.4529936
21.22,-0.92520706
21.23,-3.4700109
21.24,-1.6098127
21.25,-2.6824446
21.26,-3.8741244
21.27,-4.103155
21.28,-1.83661
21.29,-1.6318472
21.3,-1.0597894
21.31,-4.4641039
21.32,-2.8074741
21.33,-1.8076482
21.34,-1.2126236
21.35,-2.5112842
21.36,-3.0557801
21.37,-2.8147008
21.38,-4.1526966
21.39,-0.49010147
21.4,-2.2924149
21.41,-2.399354
21.42,-2.8687093
21.43,-2.1250956
21.44,0.359571
21.45,0.46646708
21.46,-3.8915167
21.47,-3.708088
21.48,-2.650167
21.49,-2.602434
21.5,-3.1078702
21.51,-1.2939361
21.52,-2.5984085
21.53,-2.0522378
21.54,-2.1671337
21.55,-1.5411173
21.56,-3.5508
21.57,-1.7151506
21.58,-3.8239148
21.59,-2.6067535
21.6,-3.0276723
21.61,-1.6239886
21.62,-3.0909907
21.63,-2.5955147
21.64,-1.9499598
21.65,-0.26717979
21.66,-1.6333818
21.67,-1.7426504
21.68,-2.8965856
21.69,-1.7360514
21.7,-1.3263522
21.71,-3.8478934
21.72,-2.2663408
21.73,-1.7948538
21.74,-1.8028077
21.75,-2.0180811
21.76,-3.1039782
21.77,-3.1456694
21.78,-2.4727728
21.79,-3.3942359
21.8,-4.2174129
21.81,-2.0829652
21.82,-3.4808184
21.83,-0.6795145
21.84,-3.6344298
21.85,-3.0527112
21.86,-4.256942
21.87,-4.163443
21.88,-0.86491293
21.89,-2.5508187
21.9,-2.2914803
21.91,-2.0514475
21.92,-1.993194
21.93,-1.6285799
21.94,-0.58888865
21.95,-1.8446212
21.96,-4.543431
21.97,3.2977752
21.98,-0.092987412
21.99,-3.6739558
22,-4.3418207
22.01,-1.3824858
22.02,-2.3916415
22.03,-3.8380791
22.04,-3.3948439
22.05,-1.8222712
22.06,-0.43698073
22.07,0.46178274
22.08,-4.2143194
22.09,-3.517379
22.1,-0.55794812
22.11,-2.6579272
22.12,-0.72175887
22.13,-0.78560016
22.14,-1.6055082
22.15,-2.2628779
22.16,-2.4786568
22.17,-1.3191578
22.18,-1.6337394
22.19,-2.4601406
22.2,-4.0287849
22.21,-1.6018654
22.22,-4.0681032
22.23,-2.2227933
22.24,-2.2315003
22.25,-1.3361449
22.26,-0.91808465
22.27,-1.9058852
22.28,-3.1960506
22.29,-2.5319249
22.3,-7.0903741
22.31,-3.0472487
22.32,-4.3415996
22.33,-4.4755829
22.34,-1.2997871
22.35,-2.7816929
22.36,-0.98285934
22.37,-2.2786748
22.38,-3.1493304
22.39,-3.2352099
22.4,-2.1116542
22.41,-1.0836391
22.42,0.30947076
22.43,-2.8926784
22.44,-2.8019744
22.45,-4.1124831
22.46,-1.7056142
22.47,-3.2038604
22.48,-2.5581427
22.49,-2.4956801
22.5,-2.5633191
22.51,-4.7634149
22.52,-2.3877792
22.53,-2.2510747
22.54,-1.0229311
22.55,-3.198051
22.56,-2.3038423
22.57,-2.0397395
22.58,-0.17568824
22.59,-2.620777
22.6,-2.0747131
22.61,-1.8568212
22.62,-1.6095794
22.63,-3.9004678
22.64,-3.0074259
22.65,-1.6049349
22.66,-2.4327989
22.67,-0.9541941
22.68,-3.4324346
22.69,-3.6620406
22.7,-3.6808543
22.71,-2.3227895
22.72,-2.8496296
22.73,-3.4352042
22.74,0.79574377
22.75,-2.3509382
22.76,-2.5603509
22.77,-0.85196521
22.78,-3.8788731
22.79,0.71872274
22.8,-3.1696273
22.81,-0.14872723
22.82,-2.2398519
22.83,-3.676473
22.84,-3.1489069
22.85,1.8936031
22.86,-4.0679615
22.87,-0.83573384
22.88,-1.5392232
22.89,-2.7007593
22.9,0.81556497
22.91,-3.4642626
22.92,-2.1470222
22.93,-0.041976477
22.94,-3.8391132
22.95,-4.354335
22.96,1.6872477
22.97,-1.276006
22.98,-1.7689233
22.99,-3.4996786
23,-1.7000721
23.01,-3.6256947
23.02,-3.1476295
23.03,-0.86148382
23.04,-3.6537957
23.05,-4.6894754
23.06,-3.8202722
23.07,-3.5732556
23.08,-0.45215724
23.09,0.009904257
23.1,-3.5300462
23.11,-2.7408506
23.12,-2.7393393
23.13,-3.6390053
23.14,-3.2288985
23.15,-2.5276788
23.16,-2.4100009
23.17,-2.1800932
23.18,-1.5635005
23.19,-2.0060293
23.2,0.61032223
23.21,-4.767605
23.22,-1.845731
23.23,-3.4432433
23.24,-3.2615767
23.25,-3.2107727
23.26,-2.237328
23.27,-2.6207211
23.28,-2.6738669
23.29,-3.0614265
23.3,-3.0520106
23.31,-1.6581891
23.32,-4.0026603
23.33,-3.5119591
23.34,-2.11329
23.35,-1.7154515
23.36,-3.0825282
23.37,-3.2270844
23.38,-0.085064458
23.39,-3.6892169
23.4,-3.5691677
23.41,-2.8665458
23.42,0.48782113
23.43,-4.4103005
23.44,-2.243773
23.45,-0.90780051
23.46,-2.9368431
23.47,-2.9115018
23.48,-1.9740166
23.49,-2.7233937
23.5,-2.9057434
23.51,-2.7983705
23.52,-3.4038681
23.53,-4.0511335
23.54,2.0173458
23.55,-3.1846606
23.56,-0.30866411
23.57,-2.8087118
23.58,-2.572631
23.59,-1.9062762
23.6,-1.7950643
23.61,-1.4575089
23.62,-2.4707908
23.63,-2.4353318
23.64,-3.6750707
23.65,-2.546138
23.66,-3.0533294
23.67,-2.5867097
23.68,-1.9741424
23.69,-3.5620743
23.7,0.87275692
23.71,-2.6507803
23.72,-3.6703809
23.73,-4.6335097
23.74,-1.9838954
23.75,-2.6148945
23.76,-1.5635542
23.77,-1.5569553
23.78,-3.4714847
23.79,-2.5723065
23.8,-2.4858753
23.81,-4.0669731
23.82,-2.6557227
23.83,1.4402898
23.84,-0.002232904
23.85,-2.6377106
23.86,-0.035311958
23.87,-2.1566528
23.88,-2.4457538
23.89,-1.6385248
23.9,-1.0637377
23.91,-2.4172079
23.92,-2.8241731
23.93,-1.9073833
23.94,-1.8017254
23.95,-2.7169351
23.96,-4.9931637
23.97,-3.7881952
23.98,-3.9122943
23.99,-3.2444226
24,-1.1247729
24.01,-0.080987382
24.02,0.005586875
24.03,-0.97447012
24.04,-2.5072841
24.05,-2.1554629
24.06,-0.59428146
24.07,-3.5079209
24.08,0.55663701
24.09,-2.6894687
24.1,-3.7239609
24.11,-3.8885545
24.12,-0.1932496
24.13,-3.333382
24.14,-1.5969276
24.15,-3.4642986
24.16,-2.0583031
24.17,-3.3394401
24.18,-2.5351966
24.19,-2.6685636
24.2,-3.5258654
24.21,-4.0498075
24.22,-1.5370621
24.23,-3.5331048
24.24,0.62874221
24.25,-3.3055495
24.26,-2.0608501
24.27,-3.1900162
24.28,-1.8946454
24.29,-0.53069675
24.3,-2.5652911
24.31,-2.3890321
24.32,-1.3609375
24.33,0.003677395
24.34,-3.4740679
24.35,-1.1738492
24.36,-4.2258213
24.37,-2.9070837
24.38,-4.1292604
24.39,-4.717448
24.4,-0.78092924
24.41,-3.4792015
24.42,0.090146502
24.43,-1.3412203
24.44,-1.0145863
24.45,-1.8026252
24.46,-2.1772842
24.47,-3.8479552
24.48,-3.5263962
24.49,-4.3287151
24.5,-4.0075881
24.51,-4.2681429
24.52,-1.800048
24.53,-4.5725641
24.54,-0.87172305
24.55,-2.7309898
24.56,-2.5636096
24.57,-3.4065888
24.58,-3.9829055
24.59,-2.7916496
24.6,-0.36233361
24.61,-0.51969472
24.62,-1.2819739
24.63,-3.6892811
24.64,-4.2590976
24.65,-2.459126
24.66,-2.5440544
24.67,-3.8173722
24.68,0.96944947
24.69,-3.6652235
24.7,0.13886126
24.71,-2.4961347
24.72,-3.4334144
24.73,-2.7805321
24.74,-2.0786546
24.75,-2.3359174
24.76,-0.72208654
24.77,0.17022186
24.78,-3.7135042
24.79,0.11177592
24.8,-3.8104355
24.81,-0.32699726
24.82,-2.0830928
24.83,-1.3674963
24.84,-2.362605
24.85,-2.0223161
24.86,-3.6054266
24.87,-2.1869832
24.88,-0.44839373
24.89,-0.85344362
24.9,-0.19454066
24.91,-1.2323772
24.92,0.21279179
24.93,-2.9256486
24.94,-4.8207977
24.95,-3.2221184
24.96,-3.1096669
24.97,-2.2567495
24.98,-0.71363972
24.99,-4.0662887
25,-2.0197791
25.01,-2.2026746
25.02,-1.6088838
25.03,-2.9439997
25.04,-2.6679356
25.05,-3.408686
25.06,-2.477065
25.07,-4.1319724
25.08,-3.1100591
25.09,-2.1295479
25.1,-3.218038
25.11,0.41431889
25.12,-2.2912247
25.13,-3.1106647
25.14,-2.8091261
25.15,-2.3124822
25.16,-0.088297627
25.17,0.80113255
25.18,-3.5872016
25.19,-3.6429977
25.2,-2.4097078
25.21,-1.9310925
25.22,-4.3473518
25.23,-2.7661053
25.24,-2.5246136
25.25,-2.9025933
25.26,-4.0594062
25.27,-2.2640149
25.28,-1.2135297
25.29,-3.457563
25.3,-1.1275999
25.31,-4.2901706
25.32,-1.8364606
25.33,-4.4299437
25.34,1.1278206
25.35,-2.3680297
25.36,-1.9310868
25.37,-1.6099549
25.38,0.1651128
25.39,-2.9698502
25.4,-3.0713117
25.41,-1.3882266
25.42,-1.9651768
25.43,-0.13199979
25.44,-2.8296175
25.45,-1.8330969
25.46,-0.71217932
25.47,-2.9628548
25.48,-6.2808752
25.49,-0.22214931
25.5,-4.2251595
25.51,-1.2521886
25.52,1.0143436
25.53,-3.2675569
25.54,-3.4257967
25.55,-0.22184468
25.56,-2.1642106
25.57,-2.6909366
25.58,-4.2591739
25.59,-3.0712818
25.6,-2.1150456
25.61,-3.467013
25.62,1.0996969
25.63,-2.5241224
25.64,-3.0678091
25.65,-1.7439379
25.66,-4.1831587
25.67,-1.6282795
25.68,-2.4749889
25.69,-2.3718002
25.7,-2.6171476
25.71,-1.8887391
25.72,-2.9540491
25.73,-3.0350933
25.74,-3.1347706
25.75,-1.5074478
25.76,-2.2626753
25.77,-1.9786144
25.78,-2.148051
25.79,0.16571338
25.8,-1.3549117
25.81,-2.6931506
25.82,-2.3464712
25.83,-0.75931008
25.84,-2.6213715
25.85,-3.0784704
25.86,-2.8088985
25.87,-3.7705516
25.88,-4.3480526
25.89,-2.358285
25.9,-4.1539843
25.91,-4.0419106
25.92,0.65460368
25.93,0.7049704
25.94,-1.6310765
25.95,-2.4872153
25.96,-2.2542933
25.97,-3.1944319
25.98,-2.8629492
25.99,-0.70164433
26,-3.0572084
26.01,-0.56060788
26.02,-3.5219419
26.03,0.21328177
26.04,-0.40915705
26.05,-2.4434036
26.06,-2.9260007
26.07,-2.8726855
26.08,-3.1380982
26.09,-3.5210193
26.1,-2.9979478
26.11,-1.4673528
26.12,-1.2818252
26.13,-2.4665261
26.14,-3.2809648
26.15,-2.2925606
26.16,-0.58651526
26.17,-3.3837896
26.18,-3.4515478
26.19,-2.8996766
26.2,-1.889344
26.21,-1.479452
26.22,-0.68053669
26.23,-3.9340796
26.24,-3.9854377
26.25,-1.2233745
26.26,-0.79895599
26.27,-3.7799605
26.28,-2.7520007
26.29,-3.2650719
26.3,-2.9242187
26.31,-1.8876629
26.32,-2.3471756
26.33,-3.4054309
26.34,-1.9598399
26.35,-1.5456764
26.36,-1.3605148
26.37,-1.8711062
26.38,-3.3918721
26.39,-2.9079217
26.4,-1.5161171
26.41,-4.0688772
26.42,-1.4317809
26.43,-3.0631398
26.44,-4.0471122
26.45,-2.5140512
26.46,-3.2761632
26.47,-2.1342728
26.48,-2.6451091
26.49,0.33344314
26.5,-3.4847545
26.51,-3.5930925
26.52,-1.5051692
26.53,-2.898924
26.54,-3.3650375
26.55,-0.30110033
26.56,-3.1762581
26.57,-2.7342996
26.58,-2.2130023
26.59,-3.9614716
26.6,-2.4677216
26.61,-1.8535456
26.62,-2.8198544
26.63,0.99374857
26.64,-0.29832291
26.65,-2.4455978
26.66,-3.9277876
26.67,-1.3474152
26.68,-3.2002607
26.69,-2.1421062
26.7,-1.7950276
26.71,-1.5184646
26.72,-3.4735073
26.73,-3.0625447
26.74,-2.2919252
26.75,-2.9111311
26.76,-1.3880274
26.77,-2.7983827
26.78,-1.4938292
26.79,-0.4515601
26.8,-2.1171958
26.81,-2.5130923
26.82,-2.7390694
26.83,-2.7390315
26.84,-1.6693364
26.85,-1.1077369
26.86,-1.0160791
26.87,-2.238752
26.88,-3.000349
26.89,-3.9670552
26.9,-2.8916432
26.91,-2.9472375
26.92,-2.0633294
26.93,-2.7187364
26.94,-2.0073726
26.95,-3.4327608
26.96,-1.2737787
26.97,0.18896612
26.98,-1.5139222
26.99,-0.40805922
27,-2.0178716
27.01,-1.8325271
27.02,-2.8502034
27.03,-3.4671156
27.04,-1.922525
27.05,-1.5142643
27.06,-2.4430584
27.07,-2.4517945
27.08,-2.1087756
27.09,-4.0205851
27.1,-2.7111381
27.11,-2.1413577
27.12,-4.3574746
27.13,0.33538775
27.14,-3.3348662
27.15,-1.0471704
27.16,-4.5590404
27.17,-2.6379506
27.18,-2.2479769
27.19,0.1876657
27.2,-2.6306427
27.21,-2.1618283
27.22,-2.6186941
27.23,-3.8738158
27.24,-2.4643815
27.25,-3.849032
27.26,-2.1459411
27.27,-3.3265688
27.28,-4.3292617
27.29,-2.245741
27.3,-2.4412698
27.31,0.042398246
27.32,-2.8585281
27.33,-3.7171244
27.34,-3.0961314
27.35,-2.4446717
27.36,-3.2280586
27.37,1.4739407
27.38,-3.7420225
27.39,-2.3553998
27.4,-3.694742
27.41,-0.469012
27.42,-1.0321621
27.43,-2.56636
27.44,-3.2845419
27.45,-3.9014962
27.46,-3.5060312
27.47,-1.5229701
27.48,-2.989641
27.49,0.40683607
27.5,-2.6890007
27.51,-3.4753555
27.52,-1.1520374
27.53,-3.4194244
27.54,-1.206684
27.55,-3.8293727
27.56,0.47774176
27.57,0.85876083
27.58,0.61202766
27.59,-0.92013593
27.6,-1.8972434
27.61,-3.917181
27.62,-3.2917327
27.63,-2.1927398
27.64,-2.829281
27.65,0.28559834
27.66,-3.0591087
27.67,-3.271075
27.68,-2.2027215
27.69,-2.2425718
27.7,-4.5594871
27.71,-3.9214912
27.72,-2.8139145
27.73,-1.644749
27.74,-3.0696639
27.75,-3.6946241
27.76,-3.0007088
27.77,-3.8531034
27.78,-3.8682968
27.79,-0.55780885
27.8,-0.11582136
27.81,-2.409764
27.82,-4.456948
27.83,-3.9908739
27.84,-2.7139915
27.85,-2.1124362
27.86,-3.7384307
27.87,-1.2821273
27.88,-3.8533836
27.89,-1.8839151
27.9,-1.9829278
27.91,-3.2032912
27.92,-2.8902968
27.93,-3.9282317
27.94,-1.3105219
27.95,-3.1097191
27.96,-2.6209574
27.97,-1.7690856
27.98,-4.5395448
27.99,-2.8421027
28,-4.3940954
28.01,-3.408431
28.02,-2.3851225
28.03,-1.9551889
28.04,-2.7126457
28.05,0.63488775
28.06,0.81072744
28.07,0.8056853
28.08,-2.0745554
28.09,-2.6439407
28.1,-2.3545043
28.11,-3.0549368
28.12,-2.2097952
28.13,-1.0229847
28.14,-3.362494
28.15,-3.0806357
28.16,-4.6413785
28.17,-2.0173122
28.18,-1.7692686
28.19,0.87807225
28.2,-4.3562231
28.21,-1.3197614
28.22,-1.7488487
28.23,-1.5050219
28.24,-2.5554714
28.25,-4.2302827
28.26,-3.2036588
28.27,-0.79307791
28.28,-2.1787227
28.29,-1.3240126
28.3,0.23055218
28.31,-1.929078
28.32,0.020308075
28.33,-1.8278082
28.34,-2.4890627
28.35,-0.26702858
28.36,-2.9297871
28.37,-2.1373528
28.38,-2.7640625
28.39,-2.4955729
28.4,-1.4569184
28.41,1.1064485
28.42,-2.59622
28.43,-2.8987414
28.44,-2.3894934
28.45,-4.2653988
28.46,1.002088
28.47,-2.1341404
28.48,-2.3282512
28.49,-3.6256828
28.5,-2.5244536
28.51,-2.51394
28.52,-0.19751784
28.53,-2.7347411
28.54,-5.0260516
28.55,-3.9743616
28.56,-3.2637666
28.57,-1.9182256
28.58,-2.4663486
28.59,-4.3642404
28.6,-4.3737842
28.61,-4.5689418
28.62,-1.7957682
28.63,-2.4207865
28.64,-0.98917635
28.65,-1.066953
28.66,-4.1922868
28.67,-2.6112659
28.68,-0.82698912
28.69,-1.2498381
28.7,-3.2317866
28.71,-1.8696881
28.72,-3.5679871
28.73,-3.1858339
28.74,-3.546082
28.75,-2.388383
28.76,-0.99428113
28.77,-2.8977896
28.78,-4.4102002
28.79,0.15171571
28.8,-0.99085293
28.81,0.32340967
28.82,-1.9352961
28.83,-3.5297476
28.84,-3.0063966
28.85,-1.7129208
28.86,0.84911529
28.87,-3.7720543
28.88,-1.5527278
28.89,-2.6642236
28.9,-2.7993395
28.91,-2.7412993
28.92,-2.9175124
28.93,-4.2007791
28.94,-3.9330538
28.95,-4.2963602
28.96,-3.0017276
28.97,-3.2403342
28.98,-3.9677966
28.99,-3.568218
29,0.71639362
29.01,-3.1365629
29.02,-3.5428509
29.03,1.158704
29.04,0.616892
29.05,-3.598359
29.06,-0.82978422
29.07,-3.8399274
29.08,-1.9702951
29.09,-2.8168683
29.1,-0.16142435
29.11,-2.9960273
29.12,0.48943753
29.13,-4.3504378
29.14,-1.3545325
29.15,-1.8398664
29.16,-2.7944135
29.17,-2.1424162
29.18,-3.0324687
29.19,-2.3315659
29.2,-2.6871337
29.21,-3.9650391
29.22,-2.2094789
29.23,-2.1947212
29.24,1.2022944
29.25,-0.71998656
29.26,-1.7829031
29.27,-2.8540759
29.28,-0.88932392
29.29,-4.2976048
29.3,-3.0105571
29.31,-2.497844
29.32,-2.2982561
29.33,-2.3349201
29.34,-3.6984486
29.35,-2.4857664
29.36,0.30901663
29.37,-3.809343
29.38,-0.94128422
29.39,-1.5630787
29.4,-2.4623531
29.41,-3.2880467
29.42,-5.1807244
29.43,-3.5326191
29.44,-1.5358204
29.45,-3.7790161
29.46,-3.2251147
29.47,-1.3335291
29.48,-1.6958356
29.49,-2.0649279
29.5,0.71704787
29.51,-2.6431274
29.52,-2.5802668
29.53,-3.5130907
29.54,-3.1870049
29.55,-4.7219407
29.56,-3.2638034
29.57,-3.560734
29.58,1.2649369
29.59,-0.69068983
29.6,-1.9785867
29.61,-5.8355096
29.62,-2.6537758
29.63,-4.2369848
29.64,-1.30314
29.65,-3.0135261
29.66,-2.5198291
29.67,1.3187638
29.68,-0.13242028
29.69,-4.3283756
29.7,-2.955413
29.71,-2.1596705
29.72,-2.7971792
29.73,-0.53256687
29.74,-3.2823973
29.75,-3.0775953
29.76,-3.1833863
29.77,-0.33014928
29.78,-2.420253
29.79,-2.3681543
29.8,-0.95916538
29.81,-0.4168748
29.82,-3.1128807
29.83,-2.4845699
29.84,-4.6168382
29.85,0.018693358
29.86,-3.6249505
29.87,-1.5403223
29.88,-2.8646686
29.89,-3.7954225
29.9,-2.139559
29.91,-3.1203508
29.92,-4.1163396
29.93,-0.61448669
29.94,2.8944968
29.95,-0.93791023
29.96,-2.6149796
29.97,-3.1902834
29.98,0.78698554
29.99,-2.4050497
30,-3.4696612
30.01,-3.5924554
30.02,-3.7240981
30.03,-2.0366395
30.04,-2.2948489
30.05,-1.5913921
30.06,-1.9285331
30.07,-1.354432
30.08,-3.9476595
30.09,0.78886945
30.1,-2.0465172
30.11,0.56211539
30.12,-0.96967403
30.13,-2.1330924
30.14,-1.4079655
30.15,-3.1223586
30.16,-3.019428
30.17,-1.2602129
30.18,-3.6356136
30.19,-0.67770175
30.2,-4.1051346
30.21,-0.9148682
30.22,-1.71447
30.23,-1.7050709
30.24,-2.1609671
30.25,-1.2658237
30.26,-3.5184386
30.27,-2.5496452
30.28,-2.194853
30.29,-2.8632723
30.3,-1.3094071
30.31,-2.4014814
30.32,-0.74226893
30.33,0.32423847
30.34,-2.5521193
30.35,-1.9103624
30.36,-2.38048
30.37,-3.288446
30.38,-0.83901437
30.39,-0.88626793
30.4,1.1461011
30.41,-1.278821
30.42,-1.4441449
30.43,-2.0784308
30.44,-2.2684956
30.45,-0.92605131
30.46,-1.1981326
30.47,-3.6573746
30.48,-4.1145985
30.49,-1.4496963
30.5,1.7062864
30.51,-3.3345162
30.52,-3.0560388
30.53,0.064742408
30.54,-2.8563093
30.55,-1.8579649
30.56,-3.3490036
30.57,-3.9298749
30.58,-3.3068457
30.59,0.40487794
30.6,-2.6941373
30.61,-2.1918403
30.62,-3.4779424
30.63,-2.9068579
30.64,-1.915133
30.65,-2.0636293
30.66,-3.0375995
30.67,-3.5769138
30.68,-3.4107707
30.69,-2.7134258
30.7,-3.1482456
30.71,-3.3477992
30.72,1.6769279
30.73,-1.8641345
30.74,-3.4451593
30.75,-0.050182989
30.76,0.30088073
30.77,-3.0141811
30.78,-3.5765087
30.79,-3.457369
30.8,-2.6608687
30.81,-3.2950692
30.82,-1.9565029
30.83,-3.6734939
30.84,-0.9055432
30.85,-2.0501421
30.86,-4.3433519
30.87,-1.6939166
30.88,-2.3803327
30.89,-3.7654907
30.9,-0.63839074
30.91,-2.0727058
30.92,-1.8536067
30.93,-2.8119009
30.94,-2.5400678
30.95,-4.1421068
30.96,-3.4139541
30.97,-0.76088077
30.98,-2.0669509
30.99,-4.3325832
31,1.2421297
31.01,-1.416872
31.02,-4.2162346
31.03,0.052462855
31.04,-3.0717826
31.05,-2.6275268
31.06,0.66220728
31.07,-3.3375635
31.08,0.39827207
31.09,-3.01494
31.1,-3.280956
31.11,-4.4489736
31.12,-2.901408
31.13,-1.2775969
31.14,0.30072827
31.15,-1.5450204
31.16,-0.52248847
31.17,-0.62105503
31.18,-2.350438
31.19,2.2687522
31.2,-3.0352252
31.21,-3.2433044
31.22,-1.5450136
31.23,-4.5213024
31.24,-3.3186766
31.25,-2.9827963
31.26,-3.2473388
31.27,-4.3381588
31.28,-1.0722046
31.29,-1.5132759
31.3,-1.5135135
31.31,-1.8508768
31.32,-1.6407018
31.33,-1.8026659
31.34,-0.9565972
31.35,-0.69531154
31.36,-1.5682399
31.37,-2.1409032
31.38,-1.2852599
31.39,-1.6813927
31.4,-0.91154318
31.41,-1.311757
31.42,-2.1780282
31.43,-1.5252336
31.44,-0.75302153
31.45,-0.71393963
31.46,-1.5362496
31.47,-1.7890177
31.48,-2.3726957
31.49,-0.3177291
31.5,-0.69313379
31.51,-1.8913207
31.52,-0.77185517
31.53,-1.3966962
31.54,-0.83285628
31.55,-0.36784629
31.56,-1.2533638
31.57,-0.75566722
31.58,-0.68494264
31.59,0.18166269
31.6,-0.35825428
31.61,-0.71317023
31.62,-2.3298184
31.63,0.23496143
31.64,-0.15799584
31.65,-0.40109251
31.66,-3.5573964
31.67,-2.3655078
31.68,-1.7016643
31.69,-1.2553902
31.7,-2.1713602
31.71,-1.71154
31.72,-1.4707067
31.73,-2.5630449
31.74,-0.57419419
31.75,-1.8993025
31.76,-1.6605015
31.77,-2.2401826
31.78,-1.7726732
31.79,-1.1260654
31.8,-0.53840632
31.81,-2.6682493
31.82,-2.9310035
31.83,-2.4642958
31.84,-2.6749136
31.85,-3.3944784
31.86,-1.5484105
31.87,-0.07061725
31.88,-2.5507669
31.89,-2.6288817
31.9,-1.905968
31.91,-2.8543087
31.92,-0.4237925
31.93,-2.3455207
31.94,-2.2316029
31.95,-3.5353787
31.96,-3.0546452
31.97,-2.9138077
31.98,-0.93220382
31.99,0.94676715
32,-3.0089924
32.01,-2.8326805
32.02,-1.3168273
32.03,-1.3945683
32.04,-0.52225873
32.05,0.75888722
32.06,-1.74708
32.07,-0.79720813
32.08,-0.75510143
32.09,-3.8155176
32.1,0.59594828
32.11,-0.86089294
32.12,0.80449805
32.13,-0.82520676
32.14,-1.2326682
32.15,-1.6389408
32.16,-0.12757746
32.17,-0.77736914
32.18,-1.9918757
32.19,-1.5984805
32.2,-1.0076577
32.21,-0.74994509
32.22,-0.70420858
32.23,-2.2661986
32.24,-2.9377142
32.25,-1.4681189
32.26,-1.7188539
32.27,-2.1402525
32.28,-0.38546083
32.29,-0.99106003
32.3,-0.6990134
32.31,-1.5374159
32.32,-1.7567753
32.33,-0.88331487
32.34,-2.1583764
32.35,-1.1425381
32.36,-0.51343793
32.37,-0.43082711
32.38,-1.2481304
32.39,-1.8421131
32.4,-3.3395943
32.41,-1.9253892
32.42,-0.67903383
32.43,-1.2883653
32.44,-2.1782214
32.45,-0.82955175
32.46,-0.85900435
32.47,-2.1750728
32.48,-0.11553524
32.49,-2.6576559
32.5,-0.76488704
32.51,-1.9729545
32.52,0.20874035
32.53,-1.0702747
32.54,-3.9084752
32.55,-0.42583626
32.56,-1.7297703
32.57,-1.6570281
32.58,-2.1454039
32.59,-1.5190831
32.6,-1.5160517
32.61,-0.67469905
32.62,-0.98425658
32.63,-2.3101657
32.64,-1.6561644
32.65,-0.69101221
32.66,-1.5862998
32.67,-1.7134977
32.68,-3.0459647
32.69,-1.8805314
32.7,-2.0007068
32.71,-1.6145431
32.72,-0.2119067
32.73,-3.1705047
32.74,-1.9400754
32.75,-1.6291921
32.76,-2.2568267
32.77,-2.1268376
32.78,-3.2868625
32.79,-2.6005786
32.8,-2.8588738
32.81,-0.89594098
32.82,0.19929697
32.83,-2.2312767
32.84,-1.4219657
32.85,-2.5263388
32.86,-1.2484028
32.87,-1.8695477
32.88,-0.61299568
32.89,-1.6031165
32.9,-1.1272783
32.91,-0.8232262
32.92,-1.1748819
32.93,-0.95399086
32.94,-0.8454555
32.95,-0.22954072
32.96,-0.76988793
32.97,-2.5937802
32.98,-1.8810332
32.99,-1.1813653
33,-0.63583343
33.01,-0.77343517
33.02,-1.8274546
33.03,-1.7082084
33.04,-1.2240482
33.05,-1.8294579
33.06,-1.0224693
33.07,-1.2408056
33.08,-0.93798191
33.09,-1.1545182
33.1,-0.13578812
33.11,-1.5300874
33.12,-1.1470516
33.13,-0.93997519
33.14,-0.96078556
33.15,-1.3278312
33.16,0.22974121
33.17,-0.98087795
33.18,-1.4803455
33.19,-0.89810624
33.2,-1.1853073
33.21,-1.1200053
33.22,-0.71656353
33.23,-1.1077511
33.24,-1.4051883
33.25,-1.4052998
33.26,-1.2429079
33.27,-0.96991658
33.28,-0.68343263
33.29,-1.3426386
33.3,-1.5122063
33.31,-2.374696
33.32,0.43714992
33.33,-1.3337614
33.34,-1.1043951
33.35,-1.303313
33.36,-1.4423826
33.37,-1.1363547
33.38,-1.5673481
33.39,-1.3500732
33.4,-1.4151337
33.41,-2.1517512
33.42,-1.6357353
33.43,-1.914614
33.44,-2.3797
33.45,-1.8782884
33.46,-3.2034266
33.47,-2.6079952
33.48,-1.3899842
33.49,-3.0235843
33.5,-1.5220977
33.51,-0.77163509
33.52,-2.3256078
33.53,-1.5265928
33.54,-0.83101884
33.55,-1.7796973
33.56,-3.7466185
33.57,-1.8818454
33.58,-2.7633435
33.59,-2.7504766
33.6,0.25744874
33.61,-1.6192139
33.62,-1.0084958
33.63,-1.137772
33.64,-1.1898313
33.65,-1.4302315
33.66,-2.3267235
33.67,-0.85695744
33.68,-2.0577057
33.69,-2.0162986
33.7,-1.6912191
33.71,-1.506695
33.72,-0.024452227
33.73,-1.1378667
33.74,-0.79970084
33.75,-1.5377932
33.76,-0.62488334
33.77,-1.9182679
33.78,-2.6094174
33.79,-1.413587
33.8,-0.58847988
33.81,-1.6590773
33.82,-2.1080039
33.83,-1.7932982
33.84,-1.3609743
33.85,-1.3516157
33.86,-0.97749113
33.87,-2.2688257
33.88,-1.0377621
33.89,-0.97684474
33.9,-1.3653301
33.91,-2.582423
33.92,-1.0442214
33.93,0.16929554
33.94,-1.6453382
33.95,-1.1130288
33.96,-1.0240424
33.97,-0.20142047
33.98,-2.1714976
33.99,-1.7789832
34,-1.7122001
34.01,-1.0505807
34.02,-2.2525757
34.03,-0.73611621
34.04,-1.0823602
34.05,-0.28893851
34.06,-2.7026
34.07,-1.2445261
34.08,-1.6652956
34.09,-1.1558417
34.1,-1.559014
34.11,-1.1272917
34.12,-1.2640934
34.13,-0.5569922
34.14,-3.0106687
34.15,-0.32138679
34.16,-2.1011968
34.17,-1.6338475
34.18,-2.2137255
34.19,-1.7209611
34.2,-0.84037583
34.21,-1.1538643
34.22,-1.1063862
34.23,-0.057298354
34.24,-2.2367879
34.25,0.65063023
34.26,-2.1438073
34.27,-0.97725314
34.28,-2.4394219
34.29,-0.22670057
34.3,0.199407
34.31,-0.28588784
34.32,-2.8157304
34.33,0.11554415
34.34,-0.63883975
34.35,0.54560627
34.36,-0.59548603
34.37,-2.8708478
34.38,-1.874618
34.39,-1.6618906
34.4,-0.66102538
34.41,-2.2117917
34.42,-1.0528417
34.43,-1.6642132
34.44,-1.8566268
34.45,-1.9456705
34.46,-1.1615436
34.47,-2.3244544
34.48,-1.3648099
34.49,-1.3891588
34.5,0.10062811
34.51,-2.1578933
34.52,-1.7853885
34.53,-0.81759893
34.54,-1.5037232
34.55,-2.0682802
34.56,-0.94098317
34.57,-2.2416176
34.58,-1.0900951
34.59,-1.8250212
34.6,-1.5997965
34.61,-2.8729766
34.62,-0.71696773
34.63,-2.055628
34.64,-1.6321194
34.65,-2.7983533
34.66,-2.1228584
34.67,-1.7117946
34.68,-1.8518937
34.69,-1.0926646
34.7,-0.93408991
34.71,-0.43075918
34.72,-1.7965912
34.73,-0.36454512
34.74,-2.2399266
34.75,-1.2385152
34.76,0.56949937
34.77,-2.2047201
34.78,-2.8081352
34.79,-1.1437245
34.8,-2.8717528
34.81,-1.0938376
34.82,0.46945407
34.83,-0.47897354
34.84,-1.5336699
34.85,-0.64191788
34.86,-1.0940913
34.87,-1.4276912
34.88,-1.6033347
34.89,-0.7597479
34.9,-0.97339575
34.91,-0.39547011
34.92,-1.2958051
34.93,-2.2528146
34.94,-2.9455794
34.95,-2.4419954
34.96,-2.4099976
34.97,-2.5073142
34.98,-0.55119104
34.99,-1.5120093
35,-1.6293528
35.01,0.065471046
35.02,-1.5283489
35.03,-1.0979552
35.04,-0.63929919
35.05,-1.7359626
35.06,-1.8395666
35.07,-1.0697208
35.08,-1.2820147
35.09,-1.473841
35.1,-1.5308938
35.11,-1.6303964
35.12,-0.79307509
35.13,-1.5947325
35.14,-1.1775742
35.15,-1.5230291
35.16,-2.8941369
35.17,-2.084247
35.18,-1.9698524
35.19,-1.524909
35.2,0.19102391
35.21,-1.29827
35.22,-0.93706866
35.23,-0.21006258
35.24,-1.1401767
35.25,-1.2812396
35.26,-0.66820219
35.27,-0.27791989
35.28,-0.72390085
35.29,1.5679205
35.3,0.94141089
35.31,0.50726518
35.32,-0.54043564
35.33,0.34964489
35.34,0.10164453
35.35,-0.77648767
35.36,-2.092583
35.37,-1.0013597
35.38,-2.0379826
35.39,-1.7422791
35.4,-2.3140088
35.41,0.17666327
35.42,-1.8974241
35.43,-2.3982567
35.44,-1.4613673
35.45,-1.6197515
35.46,-1.2938914
35.47,0.53675023
35.48,-2.024762
35.49,-1.3498494
35.5,-0.78865461
35.51,-0.90774427
35.52,-0.65012542
35.53,-0.006057767
35.54,-0.3964454
35.55,-1.250807
35.56,0.081988164
35.57,-0.66940857
35.58,0.29785828
35.59,-0.01912957
35.6,-0.035569359
35.61,-0.45659844
35.62,-1.512685
35.63,0.25969758
35.64,0.45737228
35.65,-0.11765496
35.66,-0.51305421
35.67,-0.67287121
35.68,0.048987775
35.69,-0.19804148
35.7,-0.082940874
35.71,-0.91081028
35.72,0.34599733
35.73,-1.0751399
35.74,-1.9711608
35.75,-1.1448487
35.76,-0.24438004
35.77,-1.8389024
35.78,-0.018783542
35.79,-1.0833547
35.8,-0.93335004
35.81,-0.023255339
35.82,-0.61659413
35.83,-0.076682493
35.84,-0.34677386
35.85,-0.81114376
35.86,0.000940417
35.87,0.73547281
35.88,-1.0319985
35.89,0.006769084
35.9,0.63283149
35.91,-0.41533588
35.92,0.25750157
35.93,-2.2990383
35.94,-0.1699151
35.95,-3.4569054
35.96,-0.65226432
35.97,-1.0337591
35.98,-0.7145989
35.99,-0.12895763
36,-0.2051316
36.01,-1.1558962
36.02,-0.53847337
36.03,-1.2552833
36.04,-0.5250678
36.05,-1.0346467
36.06,1.1673264
36.07,-0.24840122
36.08,-0.70562443
36.09,-0.91640101
36.1,-0.26559527
36.11,-0.36676875
36.12,-1.1538983
36.13,-0.65433733
36.14,-0.65479405
36.15,-0.18639777
36.16,-0.59798991
36.17,-0.75805509
36.18,-0.44819424
36.19,-0.50536789
36.2,-0.53543873
36.21,-0.71565197
36.22,-0.76811046
36.23,-0.9401598
36.24,-1.1740347
36.25,-0.80868972
36.26,-0.64373945
36.27,-0.37728305
36.28,-0.50628908
36.29,-1.6737771
36.3,-1.2839691
36.31,-0.93255602
36.32,-1.2127795
36.33,-1.6804912
36.34,-1.1138234
36.35,-1.1079969
36.36,-0.71573951
36.37,-0.55151202
36.38,-0.5133182
36.39,-0.46987817
36.4,-1.4070193
36.41,-0.90058465
36.42,-0.97037783
36.43,-1.5875904
36.44,-0.58983818
36.45,-1.5240544
36.46,-0.88703722
36.47,-1.5510303
36.48,-2.00383
36.49,-0.24128277
36.5,-0.44473823
36.51,-1.1746874
36.52,-1.692356
36.53,-0.43728547
36.54,-0.25328138
36.55,-2.1170764
36.56,-0.50936742
36.57,-2.401455
36.58,-0.70619482
36.59,-2.651589
36.6,-1.2945926
36.61,-1.7235097
36.62,-1.2612234
36.63,-1.1290503
36.64,-0.50944494
36.65,-0.63761499
36.66,-1.2847299
36.67,-1.5800732
36.68,-1.9979993
36.69,-1.1251822
36.7,-0.36451051
36.71,-1.2863655
36.72,-1.3096633
36.73,-5.5022026
36.74,-1.1968618
36.75,0.014873429
36.76,-2.4378662
36.77,-2.137572
36.78,-0.99072113
36.79,-1.2567935
36.8,-0.22344844
36.81,-0.9687066
36.82,-2.3251553
36.83,-0.42191014
36.84,-0.92780323
36.85,-0.55550903
36.86,-0.58431161
36.87,-0.8556181
36.88,0.43986034
36.89,-1.8929476
36.9,-0.55378404
36.91,-0.35965649
36.92,-0.17186854
36.93,-0.25259062
36.94,-1.6249397
36.95,-0.53709488
36.96,-1.7096749
36.97,-0.52306976
36.98,-1.0203358
36.99,-0.76666865
37,-2.6047833
37.01,-0.66883377
37.02,-0.1065136
37.03,-0.51977437
37.04,-1.1812515
37.05,0.08336198
37.06,-1.3098672
37.07,-1.0317953
37.08,-0.38590004
37.09,-1.4301493
37.1,-1.0778315
37.11,-1.2976871
37.12,-1.587883
37.13,-0.71948504
37.14,-1.2048457
37.15,-1.6933045
37.16,-0.34786249
37.17,-0.87846627
37.18,-1.7144019
37.19,-0.83812097
37.2,-1.6501276
37.21,-1.228928
37.22,-0.094130607
37.23,0.81193161
37.24,-1.279446
37.25,-1.3413062
37.26,-1.7697846
37.27,-1.4409423
37.28,-0.97585031
37.29,-1.8438918
37.3,-0.46741842
37.31,-2.1405158
37.32,-0.67888856
37.33,-2.1586222
37.34,-1.3513521
37.35,-1.004234
37.36,-1.6088344
37.37,-0.8847027
37.38,-0.8060061
37.39,-1.1671055
37.4,-0.59121884
37.41,-1.6216071
37.42,0.13223731
37.43,-0.33828509
37.44,-0.64478221
37.45,-1.4609554
37.46,-1.52344
37.47,-1.5964923
37.48,-1.139702
37.49,-2.7694626
37.5,-1.6610337
37.51,0.24769006
37.52,-0.26517346
37.53,-2.2729354
37.54,-1.6845154
37.55,-2.9673678
37.56,-1.8341169
37.57,-2.6232868
37.58,-0.97302048
37.59,-1.4334488
37.6,-2.6239617
37.61,-1.6150634
37.62,-1.8164849
37.63,-0.70454382
37.64,-1.3397153
37.65,-0.91483385
37.66,-0.81278901
37.67,-1.3104388
37.68,-0.054255643
37.69,-1.9777499
37.7,-1.7699615
37.71,-1.9915854
37.72,-2.9083184
37.73,-2.4613697
37.74,-2.1796738
37.75,-1.1177427
37.76,-2.4177251
37.77,-1.2354846
37.78,-0.87433912
37.79,-2.0099548
37.8,-1.1590306
37.81,-1.7762458
37.82,-2.081127
37.83,-1.6566336
37.84,-2.2316387
37.85,-2.3068596
37.86,-0.83094741
37.87,-1.2040019
37.88,-1.2252563
37.89,-0.99039573
37.9,-1.256109
37.91,-0.6980133
37.92,-0.91764283
37.93,-0.57284733
37.94,0.031744581
37.95,-0.13581712
37.96,0.63581278
37.97,-1.1992452
37.98,0.89851023
37.99,-0.65923885
38,-1.5098256
38.01,-0.3676507
38.02,-0.726476
38.03,-0.19465735
38.04,-2.0198585
38.05,-1.8979649
38.06,-1.0418189
38.07,0.046499759
38.08,-0.79978345
38.09,-1.632522
38.1,-0.63838394
38.11,-3.510637
38.12,-0.083464125
38.13,-1.1193872
38.14,0.31172063
38.15,-0.72137615
38.16,0.095295852
38.17,-2.1561644
38.18,-0.47788873
38.19,-1.5809811
38.2,-1.5059525
38.21,-1.3274795
38.22,-5.4416439
38.23,-0.75617828
38.24,0.039611411
38.25,-3.2088975
38.26,-2.1045222
38.27,-2.9946131
38.28,-0.40326889
38.29,-0.29595761
38.3,-1.9959619
38.31,-0.89717627
38.32,-1.368822
38.33,0.62997443
38.34,-0.8901083
38.35,-0.81924467
38.36,-0.6336356
38.37,-1.3585298
38.38,-0.062112477
38.39,-0.10106176
38.4,-0.70102696
38.41,-0.45675699
38.42,-1.6948091
38.43,-1.3175353
38.44,-0.35192027
38.45,-5.8061265
38.46,-1.5909276
38.47,0.90918352
38.48,0.36045429
38.49,1.8322681
38.5,0.25755533
38.51,-1.1540705
38.52,-1.0901196
38.53,-0.010463118
38.54,2.0315829
38.55,-1.1408859
38.56,1.394968
38.57,-0.61218873
38.58,-1.5036684
38.59,0.007106127
38.6,-1.7842171
38.61,-0.8137707
38.62,2.1438703
38.63,0.33596105
38.64,-0.22705015
38.65,-0.35841754
38.66,-1.9479187
38.67,2.2092086
38.68,0.31234393
38.69,-2.2849918
38.7,-0.55806955
38.71,1.829274
38.72,-1.3248044
38.73,-0.3412237
38.74,-0.13057639
38.75,0.82632263
38.76,-1.95748
38.77,-1.0100863
38.78,-0.60931321
38.79,-1.2866751
38.8,-0.27519734
38.81,-2.3389634
38.82,-0.60638521
38.83,-1.7920913
38.84,-1.89049
38.85,-0.26862907
38.86,0.376428
38.87,-0.80908301
38.88,0.34769835
38.89,-0.27446884
38.9,-2.5345501
38.91,-1.8451663
38.92,-1.3177769
38.93,-2.0948756
38.94,-1.8878612
38.95,-2.22904
38.96,0.14052684
38.97,-1.7531524
38.98,-1.2940834
38.99,-1.3457214
39,-1.6069656
39.01,-2.0447035
39.02,-1.7010074
39.03,-1.6351768
39.04,-1.2196688
39.05,1.9717869
39.06,-0.7470029
39.07,-0.46883082
39.08,-0.804537
39.09,-0.89823303
39.1,-1.1094351
39.11,-1.3407319
39.12,-1.2371642
39.13,-1.0591492
39.14,-0.004220197
39.15,-0.84616597
39.16,0.004475116
39.17,-0.62981562
39.18,-0.47413184
39.19,-1.472702
39.2,-1.6504649
39.21,-0.81807991
39.22,1.1818211
39.23,-1.9751
39.24,-1.9260016
39.25,1.2452032
39.26,-0.47516773
39.27,0.039517068
39.28,-0.94463491
39.29,-0.86395977
39.3,-2.1978825
39.31,-1.5029984
39.32,0.8965244
39.33,-1.8460508
39.34,0.17051206
39.35,-1.6721318
39.36,-0.43514179
39.37,-1.5574671
39.38,-3.3157416
39.39,-0.43410599
39.4,-0.47411446
39.41,-1.8671581
39.42,-1.7096409
39.43,-2.8003305
39.44,-0.45002732
39.45,-1.062059
39.46,-1.4433034
39.47,-2.1368362
39.48,-0.96402526
39.49,-1.1827388
39.5,-1.0233017
39.51,-1.5907026
39.52,-0.69308795
39.53,-1.6132898
39.54,-1.0893941
39.55,-0.5452054
39.56,-1.0455621
39.57,-1.039059
39.58,-0.56196993
39.59,-1.2251888
39.6,-1.0508231
39.61,-0.81581456
39.62,-0.75575097
39.63,-1.1208652
39.64,-1.8429702
39.65,-1.4351718
39.66,-0.77472113
39.67,-1.5554245
39.68,-0.83663568
39.69,-1.0839206
39.7,-0.99004667
39.71,-1.2232548
39.72,-1.217102
39.73,-1.1279038
39.74,-1.0780296
39.75,-2.3099334
39.76,0.42942209
39.77,-5.0909808
39.78,-1.1446882
39.79,-1.9828811
39.8,-1.7155112
39.81,-0.89102787
39.82,-0.79319539
39.83,-0.37889241
39.84,0.32915064
39.85,-1.4889544
39.86,-1.7898183
39.87,-0.22197073
39.88,-1.1389697
39.89,-1.1061043
39.9,-0.74391505
39.91,-0.72123393
39.92,-1.3585595
39.93,-0.95143867
39.94,-1.0861463
39.95,-1.0139344
39.96,-0.1139452
39.97,-0.15361428
39.98,-0.80965529
39.99,-1.7375933
40,-1.3737589
40.01,-0.82524208
40.02,-0.12112629
40.03,-0.32724496
40.04,-0.83430528
40.05,-2.0568931
40.06,-1.4917474
40.07,-0.60609777
40.08,-2.2326281
40.09,0.21606781
40.1,-0.21093417
40.11,-1.9644127
40.12,-0.43091268
40.13,0.1888069
40.14,-0.75598392
40.15,-0.49050928
40.16,0.48779263
40.17,0.79558043
40.18,-0.79199088
40.19,0.042032092
40.2,0.025133459
40.21,0.092082838
40.22,-0.58234983
40.23,0.25294465
40.24,-0.35195794
40.25,-1.2758167
40.26,-0.095367711
40.27,-2.4370768
40.28,-1.1123934
40.29,-1.1579035
40.3,-1.4823743
40.31,-1.8620137
40.32,-2.2397992
40.33,-0.44355159
40.34,0.01919897
40.35,-1.3297425
40.36,-1.4445824
40.37,-1.4721424
40.38,-0.72472094
40.39,-1.4325061
40.4,-0.93659898
40.41,-1.8972278
40.42,-0.42007165
40.43,-0.82221802
40.44,-1.4373405
40.45,-1.2415961
40.46,0.1780151
40.47,-0.76130254
40.48,1.0251575
40.49,1.2814887
40.5,-0.10500259
40.51,0.96115585
40.52,-1.9122954
40.53,-0.6940985
40.54,-0.75382096
40.55,-1.911317
40.56,-1.170123
40.57,0.89232112
40.58,-1.8497031
40.59,-0.99174028
40.6,-1.3820468
40.61,-3.6732325
40.62,-1.8734162
40.63,-3.2869165
40.64,-1.5919701
40.65,-0.85933939
40.66,-1.4562656
40.67,-2.1027309
40.68,0.13232585
40.69,-1.2906964
40.7,-0.84286694
40.71,-0.78369481
40.72,-1.1110524
40.73,-0.85435976
40.74,-1.2784667
40.75,-2.3828891
40.76,-0.25694022
40.77,-0.30870977
40.78,0.17678564
40.79,-0.50094273
40.8,0.3101425
40.81,-1.1606971
40.82,-1.8116834
40.83,-2.0506144
40.84,0.44697416
40.85,-2.3488312
40.86,-3.2075726
40.87,-1.8600353
40.88,-1.6462092
40.89,-1.8785817
40.9,-1.3719104
40.91,-1.7561403
40.92,-1.829717
40.93,-2.0547983
40.94,-0.87935031
40.95,-2.2218253
40.96,1.0489098
40.97,-1.1242213
40.98,-2.645798
40.99,-3.6556719
41,-0.4215029
41.01,0.10323766
41.02,-1.1574275
41.03,3.4796887
41.04,-2.7313295
41.05,-0.57500752
41.06,-1.6586794
41.07,-1.3647136
41.08,0.98287215
41.09,-1.305832
41.1,-0.25130582
41.11,-0.65526144
41.12,-1.1591783
41.13,-0.48588802
41.14,0.14615508
41.15,-1.1851324
41.16,-0.87684706
41.17,-0.006122247
41.18,-0.95760389
41.19,-1.768395
41.2,0.48349225
41.21,-2.3481773
41.22,0.72468795
41.23,-0.096279605
41.24,-0.75602424
41.25,-1.823279
41.26,-1.4800796
41.27,-0.90162133
41.28,-1.9448258
41.29,-3.1807345
41.3,-1.813543
41.31,-1.2282395
41.32,0.17930053
41.33,-2.0732621
41.34,-2.1852523
41.35,-1.3504537
41.36,-1.4752678
41.37,-0.7037557
41.38,-0.95581763
41.39,-1.8581985
41.4,-1.6438322
41.41,-0.71850468
41.42,-1.3879568
41.43,-0.44829014
41.44,-0.052370621
41.45,-1.2547967
41.46,-0.75560759
41.47,-0.99637893
41.48,-0.74082217
41.49,-1.2214099
41.5,-0.40998849
41.51,-0.23201317
41.52,-0.81894831
41.53,-1.0486769
41.54,-1.6808981
41.55,-1.6950811
41.56,-0.47848679
41.57,-1.8355093
41.58,-0.78736529
41.59,-1.5496858
41.6,-0.59847665
41.61,-0.43943089
41.62,-1.5962357
41.63,-1.9172687
41.64,-0.98927995
41.65,-0.80279553
41.66,-2.1193458
41.67,-1.5144921
41.68,-1.6580413
41.69,-1.2221679
41.7,-0.7309427
41.71,-1.3887068
41.72,-1.8155345
41.73,-2.4513688
41.74,-0.54880259
41.75,-1.0594114
41.76,-1.5537253
41.77,-2.2307473
41.78,-2.8400384
41.79,-1.7310966
41.8,-0.24263137
41.81,-0.2113889
41.82,-0.99817156
41.83,-1.1136043
41.84,-1.129976
41.85,-2.038117
41.86,-1.4488021
41.87,-0.94443364
41.88,-1.5456213
41.89,-1.2307845
41.9,-1.1666677
41.91,-0.73556424
41.92,-1.9845212
41.93,-0.47984359
41.94,-0.98269605
41.95,-0.88394022
41.96,-1.6488365
41.97,-0.54917231
41.98,-2.6086621
41.99,-1.8559608
42,-0.51254833
42.01,-1.1626939
42.02,-2.0998543
42.03,-0.80253841
42.04,-1.1445021
42.05,-0.60993453
42.06,-0.33714752
42.07,-0.62074795
42.08,-0.79121075
42.09,-1.1033971
42.1,-0.93701236
42.11,-0.63954435
42.12,-1.610526
42.13,0.024515753
42.14,-1.6802232
42.15,-1.5777836
42.16,-0.2737931
42.17,-0.65479669
42.18,-0.84191248
42.19,-0.87820362
42.2,-1.6923975
42.21,-1.450765
42.22,-1.5291481
42.23,-1.3279175
42.24,-1.0518914
42.25,-1.3565277
42.26,-1.0368203
42.27,-1.0961023
42.28,-0.4649814
42.29,-0.86845921
42.3,-1.4448879
42.31,-0.9026239
42.32,-0.53934945
42.33,-1.414627
42.34,-0.39266401
42.35,-0.71684493
42.36,-2.3904283
42.37,-0.90516641
42.38,-1.5873182
42.39,-0.77312181
42.4,-1.4409717
42.41,-0.89128758
42.42,-1.8366583
42.43,-1.8755667
42.44,-0.4692299
42.45,-0.60399268
42.46,0.1734252
42.47,-0.74690976
42.48,-1.0258642
42.49,-1.9467028
42.5,-0.21214408
42.51,0.16310459
42.52,-0.31033403
42.53,-0.95854454
42.54,-0.066142906
42.55,-1.5559236
42.56,-0.85188422
42.57,-1.1103964
42.58,-0.83178854
42.59,-0.094328897
42.6,-0.45515109
42.61,0.1551384
42.62,-0.80549948
42.63,-0.47111945
42.64,0.044169625
42.65,-0.23113882
42.66,-1.1895055
42.67,-0.49494501
42.68,-0.54123001
42.69,1.1194668
42.7,-0.53458064
42.71,-0.62973844
42.72,-0.78113463
42.73,-0.92201191
42.74,-0.94053451
42.75,-0.60960991
42.76,-0.46382128
42.77,-0.49464559
42.78,-0.57619742
42.79,-0.17043694
42.8,-0.89523391
42.81,0.41787509
42.82,-1.4936901
42.83,-0.37376037
42.84,-2.0490535
42.85,0.25011472
42.86,-0.60945611
42.87,-0.043561387
42.88,-0.84117385
42.89,0.81464527
42.9,0.14210797
42.91,-1.1618154
42.92,-0.16839702
42.93,-1.9596251
42.94,0.53657962
42.95,-1.0556676
42.96,-0.082370329
42.97,-1.0721319
42.98,-0.74388962
42.99,-0.45851643
43,0.4727917
43.01,-0.38233758
43.02,0.096341592
43.03,-0.36160839
43.04,0.13820512
43.05,-0.20486428
43.06,0.9002677
43.07,-1.0611831
43.08,-0.043318206
43.09,-0.6178657
43.1,-1.131916
43.11,0.18974186
43.12,0.34955521
43.13,0.78967891
43.14,-0.6473008
43.15,-0.034247609
43.16,-0.30041861
43.17,-0.30318347
43.18,-0.4850556
43.19,-1.2981411
43.2,0.60667419
43.21,0.50286105
43.22,-0.33171
43.23,-0.14434677
43.24,1.2898142
43.25,-0.40254147
43.26,-1.132299
43.27,-0.56978459
43.28,0.18917154
43.29,-0.7654258
43.3,-0.77528298
43.31,0.92596131
43.32,-0.53049288
43.33,0.033659122
43.34,-1.8867805
43.35,-0.39540616
43.36,-0.41213501
43.37,0.40293015
43.38,0.028868921
43.39,-0.56195217
43.4,0.34218998
43.41,1.1451623
43.42,0.42669256
43.43,0.5931013
43.44,-0.086717694
43.45,0.43246702
43.46,0.42324497
43.47,-0.31421577
43.48,0.11452096
43.49,-0.7912844
43.5,-0.50778728
43.51,-0.19728599
43.52,-0.60866942
43.53,-0.18683627
43.54,-0.52213078
43.55,-0.84391506
43.56,-1.068702
43.57,-1.3614954
43.58,-0.74824101
43.59,-1.6043224
43.6,1.1586386
43.61,-0.93053381
43.62,-0.58550305
43.63,-0.076721175
43.64,-0.62091352
43.65,-1.4302077
43.66,-1.8115748
43.67,0.017587599
43.68,0.71117259
43.69,-0.27052765
43.7,-0.28809847
43.71,0.024208509
43.72,0.79987426
43.73,0.095062297
43.74,-1.3482916
43.75,-0.27136479
43.76,-0.11963443
43.77,-1.609746
43.78,-0.39978377
43.79,-1.3091708
43.8,-1.71323
43.81,-0.58719139
43.82,-1.0295648
43.83,-1.0549977
43.84,-2.5428636
43.85,-1.516076
43.86,-0.54101393
43.87,-0.65770672
43.88,-1.3644097
43.89,-1.1833423
43.9,-1.1651932
43.91,-0.82072146
43.92,-1.5391348
43.93,-0.91424878
43.94,-1.4577068
43.95,-0.96503595
43.96,-1.4054497
43.97,-1.111326
43.98,-1.2026821
43.99,-1.2224836
44,-0.21338591
44.01,-0.68521438
44.02,-0.98515808
44.03,-1.25754
44.04,-0.97039854
44.05,-1.0114531
44.06,-1.6192581
44.07,-1.5695351
44.08,-1.0336315
44.09,-1.3354999
44.1,-0.31137886
44.11,-0.055533715
44.12,-1.8437318
44.13,-2.5053913
44.14,-1.1510144
44.15,-2.5230774
44.16,-0.31024442
44.17,0.20931287
44.18,-1.718203
44.19,-1.3117761
44.2,-2.4563103
44.21,-1.393673
44.22,-2.9359799
44.23,-0.9774117
44.24,-1.6208071
44.25,-1.5487587
44.26,-1.4867184
44.27,-1.3464739
44.28,-2.2559625
44.29,-1.7070111
44.3,-0.89321319
44.31,-0.64293388
44.32,-2.1457917
44.33,-0.86154591
44.34,-2.0761079
44.35,-1.7211168
44.36,-1.9941839
44.37,-0.78923305
44.38,0.1513912
44.39,-0.15790064
44.4,-1.3786089
44.41,-0.13989812
44.42,-0.2971731
44.43,-0.12879549
44.44,0.085424567
44.45,-1.8285673
44.46,-1.4342688
44.47,-1.8248686
44.48,0.031504482
44.49,-0.21969872
44.5,-2.8362085
44.51,-0.80886308
44.52,-2.1588448
44.53,-1.4962537
44.54,-0.44170442
44.55,-0.9712557
44.56,-1.7241771
44.57,-0.24037014
44.58,-0.91973395
44.59,-1.1450535
44.6,-1.7025556
44.61,-1.0292245
44.62,-0.18883387
44.63,-1.4489564
44.64,-0.38569191
44.65,0.40659418
44.66,0.66394972
44.67,-2.2661216
44.68,-1.1829527
44.69,-1.702885
44.7,-2.0311866
44.71,-1.2351635
44.72,-1.0420392
44.73,-0.10153429
44.74,-0.63040285
44.75,-1.5817661
44.76,-0.19356585
44.77,-2.5558384
44.78,-1.7379336
44.79,-2.3232346
44.8,-1.5959289
44.81,-1.5772362
44.82,0.59409321
44.83,-0.3742232
44.84,-2.065635
44.85,-2.4064355
44.86,-0.59312057
44.87,-2.1304257
44.88,-2.5581138
44.89,-1.5225897
44.9,-1.6090297
44.91,-2.4376667
44.92,-1.6203646
44.93,-2.0763535
44.94,-0.053140799
44.95,-1.417712
44.96,-0.65046895
44.97,-1.1319858
44.98,-1.692062
44.99,-2.2290985
45,-1.1722193
45.01,-0.47222607
45.02,-1.3747942
45.03,-1.5130093
45.04,-1.8146166
45.05,-0.97740395
45.06,-0.91682494
45.07,-0.72830254
45.08,-1.4944446
45.09,-3.042079
45.1,-2.6126248
45.11,-1.7428614
45.12,-0.91632809
45.13,-1.2287286
45.14,-2.0146245
45.15,-1.962057
45.16,-1.3064288
45.17,-0.42313096
45.18,-2.0727685
45.19,-1.9812057
45.2,-2.5817713
45.21,-1.9448124
45.22,-0.8465267
45.23,-0.79057671
45.24,-1.1712393
45.25,-1.2926609
45.26,0.67924333
45.27,-3.5370445
45.28,-1.7916125
45.29,-1.7744281
45.3,-2.0874314
45.31,-0.24734083
45.32,-0.061466751
45.33,0.18861599
45.34,0.84206261
45.35,0.70285239
45.36,0.89998118
45.37,0.32856717
45.38,0.84771742
45.39,0.47820062
45.4,1.0665815
45.41,0.75904631
45.42,0.14074071
45.43,0.68017021
45.44,-0.013412254
45.45,0.23786451
45.46,0.88168052
45.47,0.023732825
45.48,0.14835867
45.49,1.0780875
45.5,0.95442379
45.51,0.3974819
45.52,1.148919
45.53,1.3272397
45.54,0.30613564
45.55,0.75503277
45.56,0.9137936
45.57,1.2169664
45.58,0.87849344
45.59,-0.11574309
45.6,0.55716494
45.61,0.26890999
45.62,0.86076639
45.63,0.85248173
45.64,0.7905128
45.65,1.0970611
45.66,0.78039476
45.67,0.27693952
45.68,1.1974229
45.69,0.80662708
45.7,0.85987006
45.71,1.0675117
45.72,0.95474464
45.73,0.61493655
45.74,1.6994656
45.75,0.72977858
45.76,0.51210261
45.77,0.35273451
45.78,1.0068544
45.79,0.76765295
45.8,0.41990205
45.81,0.78703965
45.82,1.7154375
45.83,0.85747805
45.84,1.4599831
45.85,1.6958754
45.86,0.79061426
45.87,1.0387273
45.88,1.5925968
45.89,0.7115778
45.9,1.4203663
45.91,1.3865043
45.92,0.66451361
45.93,1.1795478
45.94,1.4309996
45.95,1.4714553
45.96,1.6888525
45.97,1.3966508
45.98,0.672062
45.99,0.81015801
46,-0.11665877
46.01,1.5944515
46.02,1.0370845
46.03,1.6435253
46.04,1.0979023
46.05,1.3479834
46.06,1.4942312
46.07,1.924922
46.08,1.5792545
46.09,1.5882646
46.1,1.7158784
46.11,1.7127009
46.12,1.5781688
46.13,1.4612114
46.14,0.92848275
46.15,1.6588913
46.16,1.0058367
46.17,1.765185
46.18,0.047219725
46.19,0.94968038
46.2,0.66081123
46.21,0.86122442
46.22,0.25756239
46.23,0.7564706
46.24,1.0399984
46.25,0.10693868
46.26,-0.52810988
46.27,0.5939205
46.28,0.13844314
46.29,0.43773833
46.3,-0.18603265
46.31,0.60586417
46.32,0.44224543
46.33,0.68818262
46.34,0.55844508
46.35,0.49447171
46.36,0.75329516
46.37,0.68991956
46.38,0.12313676
46.39,0.30526532
46.4,0.52166443
46.41,0.40082827
46.42,1.2041288
46.43,0.72950605
46.44,-0.000106511
46.45,0.98179947
46.46,0.27991942
46.47,-0.094587657
46.48,0.95889753
46.49,0.67596219
46.5,0.46837736
46.51,-0.6557648
46.52,-3.1804041
46.53,-0.10960185
46.54,0.44252366
46.55,0.52976904
46.56,0.087136413
46.57,1.4807788
46.58,0.71594065
46.59,0.33903383
46.6,1.0137766
46.61,0.98078076
46.62,-0.056455058
46.63,0.78278839
46.64,0.85049145
46.65,0.64213793
46.66,0.94014345
46.67,0.43290073
46.68,0.72682557
46.69,0.83137426
46.7,-0.053025007
46.71,-0.29546663
46.72,-0.18798645
46.73,-0.16646176
46.74,0.51955974
46.75,0.29639877
46.76,0.50820783
46.77,-0.5367486
46.78,0.95843208
46.79,0.672074
46.8,-0.43529425
46.81,0.18585671
46.82,-0.45434083
46.83,0.62178106
46.84,0.56005309
46.85,0.5330708
46.86,0.67184597
46.87,0.11380481
46.88,0.73979297
46.89,1.2717739
46.9,-0.19758357
46.91,-0.19766862
46.92,-1.0846312
46.93,-0.40066017
46.94,-0.59146599
46.95,0.1768534
46.96,-0.3071344
46.97,-0.52696733
46.98,-2.0372037
46.99,-1.7497951
47,-0.71029281
47.01,-0.95116127
47.02,-2.6470621
47.03,-1.8975593
47.04,-2.0370203
47.05,-2.3312998
47.06,-2.3561626
47.07,-1.4817049
47.08,-1.4792048
47.09,-0.54151927
47.1,-1.556476
47.11,-1.2101256
47.12,-1.4700667
47.13,-1.8051076
47.14,-0.87769717
47.15,-0.4273847
47.16,-1.4673436
47.17,-0.54321942
47.18,-0.50719805
47.19,-0.73339069
47.2,-1.9296651
47.21,-1.6416803
47.22,-2.4366437
47.23,-2.0372526
47.24,-1.501839
47.25,-2.1837225
47.26,-1.0296155
47.27,0.73104183
47.28,-1.147942
47.29,-0.094338425
47.3,-1.4920318
47.31,-0.88863586
47.32,-3.4954296
47.33,-1.4818003
47.34,-1.4344115
47.35,-0.75277434
47.36,-1.1571678
47.37,-2.3395762
47.38,-0.70044113
47.39,-2.5918032
47.4,-1.5520095
47.41,-0.84057559
47.42,-2.3884813
47.43,-1.0752323
47.44,-2.7350943
47.45,-1.6424079
47.46,-1.9897443
47.47,-1.9467219
47.48,-2.6072241
47.49,-1.7676587
47.5,-0.97581136
47.51,-2.1575934
47.52,-0.94554423
47.53,-2.1456476
47.54,-1.2369754
47.55,-0.89806206
47.56,-0.32243708
47.57,-2.5308891
47.58,-2.8952723
47.59,-1.3560205
47.6,0.59367026
47.61,-0.94610638
47.62,-1.670864
47.63,-0.89639431
47.64,-1.6863066
47.65,-0.93867544
47.66,-2.8570611
47.67,-1.2051325
47.68,-0.65184234
47.69,1.4506975
47.7,-1.4174054
47.71,-1.7660779
47.72,-2.3026215
47.73,-1.9806111
47.74,-1.9123301
47.75,-1.5559677
47.76,-1.9604024
47.77,-1.3555033
47.78,-1.5702905
47.79,-0.9138921
47.8,0.42418121
47.81,0.68454045
47.82,1.3406578
47.83,1.2885206
47.84,0.25909855
47.85,1.055519
47.86,1.6433088
47.87,0.29697396
47.88,1.5366274
47.89,1.1515909
47.9,1.1700318
47.91,1.4922864
47.92,1.472896
47.93,0.7723214
47.94,1.5053629
47.95,0.6697777
47.96,0.92686441
47.97,1.5319212
47.98,1.4025159
47.99,1.6681677
48,0.34778395
48.01,0.90036916
48.02,1.5294293
48.03,1.462033
48.04,1.3422797
48.05,0.52128012
48.06,0.74963476
48.07,0.90244081
48.08,0.74449979
48.09,1.2081828
48.1,0.36859929
48.11,0.45697425
48.12,1.3222829
48.13,0.052077761
48.14,1.0636316
48.15,0.41273057
48.16,0.6424519
48.17,0.29629341
48.18,1.2981336
48.19,0.30054247
48.2,1.3050519
48.21,1.2445626
48.22,1.2656819
48.23,1.3133602
48.24,1.4341523
48.25,1.3031673
48.26,1.2698229
48.27,1.4942685
48.28,0.44089127
48.29,-4.5056767
48.3,1.3360561
48.31,0.80078582
48.32,1.4277785
48.33,-1.5965967
48.34,-0.3394998
48.35,-1.8424471
48.36,0.51412813
48.37,-2.0247783
48.38,-1.5695278
48.39,-0.52864831
48.4,-0.48466145
48.41,-3.044823
48.42,-0.73267929
48.43,-1.642572
48.44,0.57083995
48.45,-0.67605379
48.46,-0.41224415
48.47,-0.47159872
48.48,0.27443776
48.49,-0.83475171
48.5,-0.95119974
48.51,-0.66469577
48.52,-0.18297707
48.53,-0.90548002
48.54,-1.494667
48.55,-0.75472335
48.56,-0.16337641
48.57,-1.0407576
48.58,-2.3691762
48.59,-2.1687758
48.6,-0.28859434
48.61,-0.23339116
48.62,-2.401475
48.63,-0.91400943
48.64,-0.85280236
48.65,-0.14472969
48.66,-0.24885244
48.67,-0.50489376
48.68,-0.12141499
48.69,0.12008641
48.7,-0.69695742
48.71,-0.66864089
48.72,-0.90246642
48.73,-0.85028914
48.74,-0.82247909
48.75,-1.0978779
48.76,-1.2295083
48.77,-0.31779604
48.78,-0.47806153
48.79,-1.7350057
48.8,-0.66051512
48.81,-0.78779673
48.82,-0.21155773
48.83,-0.25440704
48.84,0.031725086
48.85,0.27640054
48.86,-0.105185
48.87,-1.3701171
48.88,-0.83332434
48.89,-0.40971097
48.9,-0.4881623
48.91,-1.2686267
48.92,-1.6133348
48.93,-1.2236362
48.94,-0.75188786
48.95,-1.4020474
48.96,-0.5624888
48.97,-1.1770155
48.98,-0.66312617
48.99,-1.6571105
49,-1.1964272
49.01,-0.982613
49.02,0.038346575
49.03,0.38487811
49.04,-1.3357147
49.05,-0.25000933
49.06,0.025151498
49.07,0.33910281
49.08,-0.94900187
49.09,-1.0483018
49.1,-1.4494112
49.11,-0.47093356
49.12,-1.7842059
49.13,0.19086838
49.14,-0.0935207
49.15,-1.2179486
49.16,0.45872522
49.17,-1.2599532
49.18,-1.5877844
49.19,-2.2026785
49.2,-1.2684395
49.21,-1.2895483
49.22,-0.5271321
49.23,0.08680197
49.24,-1.8907768
49.25,-1.0159594
49.26,-1.0330419
49.27,-1.1153875
49.28,-1.0755456
49.29,-0.81000507
49.3,-1.0235859
49.31,0.1642394
49.32,-2.4085886
49.33,0.52633365
49.34,-1.5998881
49.35,-0.79738812
49.36,-1.5763946
49.37,-0.50258495
49.38,-1.6752278
49.39,-1.4432984
49.4,-0.54776827
49.41,-1.8606967
49.42,-0.97624809
49.43,-0.2453909
49.44,-2.1862013
49.45,0.3111619
49.46,-1.1346721
49.47,-1.068641
49.48,-0.41881547
49.49,-1.7120614
49.5,-1.0810632
49.51,-1.4175322
49.52,-2.9317883
49.53,-0.86231208
49.54,-1.1229087
49.55,-1.1989814
49.56,-0.7846879
49.57,-0.8863056
49.58,-0.83796876
49.59,0.17700988
49.6,-0.61978481
49.61,-0.47754871
49.62,-0.25648287
49.63,-0.14002582
49.64,-0.61500051
49.65,-0.89507291
49.66,0.16106068
49.67,-1.504676
49.68,-0.79638929
49.69,-0.51306244
49.7,-0.92234548
49.71,-1.4313923
49.72,-1.3836047
49.73,-1.1619081
49.74,-0.8851831
49.75,-1.2888151
49.76,-1.4605902
49.77,-1.0545387
49.78,-0.2708468
49.79,-0.87790235
49.8,-1.0214039
49.81,0.40874254
49.82,-0.59152121
49.83,-0.73385668
49.84,-1.933146
49.85,-0.098339426
49.86,-2.0879124
49.87,0.34414341
49.88,-1.2468323
49.89,-2.2787241
49.9,-1.6234035
49.91,-1.1740895
49.92,-1.1888106
49.93,-1.2701629
49.94,-0.3356508
49.95,-2.8601161
49.96,-2.2529248
49.97,-1.8895451
49.98,-2.2090058
