0.01,-3.7738969
0.02,-4.2858426
0.03,-3.8742297
0.04,-3.6163638
0.05,-2.3847613
0.06,-4.4780109
0.07,-4.1021848
0.08,-3.1874679
0.09,-3.3044731
0.1,-2.2573013
0.11,-4.686175
0.12,-3.527643
0.13,-4.1259793
0.14,0.4231153
0.15,-3.8943153
0.16,-4.0168823
0.17,-2.8541073
0.18,-3.1920276
0.19,-2.8516809
0.2,0.34090237
0.21,-3.9756571
0.22,-2.3433933
0.23,-3.6341531
0.24,-3.3877792
0.25,-3.6660708
0.26,-1.2755868
0.27,-2.8690724
0.28,-0.49019514
0.29,-4.6348854
0.3,-4.0897041
0.31,-0.38375438
0.32,-0.84626258
0.33,-4.3009498
0.34,-2.0119899
0.35,-2.1090848
0.36,-3.596764
0.37,-2.2679727
0.38,-2.9895709
0.39,-4.0946853
0.4,-2.4019983
0.41,-1.9673779
0.42,-1.9397493
0.43,-2.2140382
0.44,-3.9043667
0.45,-3.0436824
0.46,-3.6197798
0.47,-4.0476053
0.48,-3.709385
0.49,-2.4357678
0.5,-2.6317933
0.51,-4.0213751
0.52,-3.8148856
0.53,-4.2551539
0.54,-3.230651
0.55,-3.5876899
0.56,-3.4994445
0.57,-4.2502468
0.58,-3.9338848
0.59,-4.3736282
0.6,-3.6764554
0.61,-2.5083201
0.62,-4.5102999
0.63,-4.6434285
0.64,-4.2213757
0.65,-3.9478
0.66,-2.7531677
0.67,-4.526609
0.68,-2.6495385
0.69,-3.441111
0.7,-4.7476673
0.71,-3.1602899
0.72,-4.3016237
0.73,-1.655758
0.74,-1.5316436
0.75,-3.8154717
0.76,-1.8032768
0.77,-1.6857579
0.78,-4.1732599
0.79,-3.7721203
0.8,-4.2149509
0.81,-2.9215615
0.82,-3.3094588
0.83,-3.5497331
0.84,-2.4347588
0.85,-0.92629538
0.86,-3.3463665
0.87,-3.3454296
0.88,-3.836643
0.89,-3.8300592
0.9,-3.7253333
0.91,-4.4693227
0.92,-1.5598168
0.93,-2.8766405
0.94,-3.2011444
0.95,-3.4845285
0.96,-3.4701365
0.97,-3.9629973
0.98,-1.5364041
0.99,-3.8435505
1,-3.4212382
1.01,-3.120885
1.02,-4.0442874
1.03,-3.2456844
1.04,-4.0925807
1.05,-4.0556242
1.06,-4.1019333
1.07,-3.5677395
1.08,-3.0834345
1.09,-5.0800412
1.1,-3.5962218
1.11,-3.5527339
1.12,-5.1103894
1.13,-4.4830861
1.14,-2.4123084
1.15,-1.7455445
1.16,-2.2103597
1.17,-2.2569055
1.18,-0.4829179
1.19,-4.3710368
1.2,-4.1878983
1.21,-4.7940929
1.22,0.35132925
1.23,-3.4674871
1.24,-3.3297065
1.25,-1.3191872
1.26,-3.2945118
1.27,-3.9735492
1.28,-4.2591798
1.29,-1.9613592
1.3,-3.5979904
1.31,-1.0952119
1.32,-3.5582071
1.33,-3.2456845
1.34,-4.6029308
1.35,-3.3014144
1.36,-4.1841461
1.37,-2.6464271
1.38,-4.5651369
1.39,-1.8921213
1.4,-1.6671817
1.41,-4.2234469
1.42,-4.3342112
1.43,-2.5494328
1.44,-4.2594502
1.45,-2.7039646
1.46,-2.2224052
1.47,-2.800415
1.48,-2.6443622
1.49,-4.0649375
1.5,-2.9943515
1.51,-1.212065
1.52,-4.6687421
1.53,-4.1817204
1.54,-4.7675259
1.55,-4.3582955
1.56,-1.973573
1.57,-3.4157185
1.58,-4.3942869
1.59,-3.4032357
1.6,-4.1988771
1.61,-3.154045
1.62,-3.7075878
1.63,-4.2859111
1.64,-2.2523365
1.65,-3.1498221
1.66,-3.2577517
1.67,-4.3605649
1.68,-3.6430403
1.69,-3.9845952
1.7,-1.7837389
1.71,-2.7853315
1.72,-2.170137
1.73,-3.091528
1.74,-3.4529485
1.75,-2.1066183
1.76,-3.8935294
1.77,-3.0475356
1.78,-3.9898584
1.79,-4.1229839
1.8,-2.3671794
1.81,-3.9365189
1.82,-3.5859334
1.83,-2.6612195
1.84,-4.1354663
1.85,-2.9938309
1.86,-3.2908265
1.87,-3.7782247
1.88,-3.2929295
1.89,-2.6837323
1.9,-3.298518
1.91,-3.1629214
1.92,-0.67277005
1.93,-3.0864195
1.94,-4.3380645
1.95,-3.423346
1.96,-3.7301465
1.97,-1.5249974
1.98,-3.8466186
1.99,-3.848758
2,-3.8094067
2.01,-4.2639169
2.02,-2.5265643
2.03,-4.0243906
2.04,-3.0644842
2.05,-3.5634461
2.06,-4.3730035
2.07,-4.4795792
2.08,-2.7698923
2.09,-1.3691829
2.1,-3.340202
2.11,-4.4766317
2.12,-3.6319085
2.13,-2.394538
2.14,-3.5507597
2.15,-3.5764652
2.16,-3.0470671
2.17,-2.6648072
2.18,-4.2182939
2.19,-3.8669017
2.2,-3.2196438
2.21,-3.8932919
2.22,-3.6119187
2.23,-4.4098588
2.24,-4.7169764
2.25,-3.4573725
2.26,-3.9114442
2.27,-2.6516137
2.28,-4.039029
2.29,-1.4095784
2.3,-4.0512842
2.31,-3.3334038
2.32,-3.8393247
2.33,-1.5695267
2.34,-4.0078711
2.35,-3.2872687
2.36,-2.4502043
2.37,-3.6965791
2.38,-2.6876828
2.39,-4.0101897
2.4,-3.344964
2.41,-3.2952573
2.42,-2.9643687
2.43,-3.6803512
2.44,-2.0396853
2.45,-3.2557439
2.46,-3.232344
2.47,-3.8046755
2.48,-3.6424916
2.49,-3.2189346
2.5,-4.0464412
2.51,-3.8873313
2.52,-3.4358057
2.53,-4.5369645
2.54,-3.8011831
2.55,-1.6719663
2.56,-3.9141957
2.57,-2.1650675
2.58,-4.0796636
2.59,-3.6271358
2.6,-2.751934
2.61,-3.9699974
2.62,-4.3592847
2.63,-3.9686125
2.64,-4.2597442
2.65,-2.6167366
2.66,-3.4784744
2.67,-3.2678757
2.68,-2.9549068
2.69,-3.0785219
2.7,-0.79913156
2.71,-2.8000279
2.72,-2.8271001
2.73,-4.0302997
2.74,-3.6759959
2.75,-4.3822126
2.76,-1.8473732
2.77,-3.0004662
2.78,-2.4154943
2.79,-2.8401591
2.8,-0.69553881
2.81,-1.4491906
2.82,-4.2515174
2.83,-3.0133394
2.84,-3.9715206
2.85,-1.7286541
2.86,-3.3908054
2.87,-3.835708
2.88,0.10585797
2.89,-3.3826084
2.9,-3.9770265
2.91,-1.9733304
2.92,-2.2259704
2.93,-0.82233951
2.94,-0.23051899
2.95,-0.75477278
2.96,-0.75105205
2.97,0.042924609
2.98,-1.9472632
2.99,-1.9714871
3,-2.0647544
3.01,0.84314545
3.02,-2.9497948
3.03,-1.4152249
3.04,-1.9571712
3.05,-2.1010539
3.06,-1.3174935
3.07,-1.9582192
3.08,-2.6288929
3.09,-1.0137682
3.1,-1.9358052
3.11,-2.0518539
3.12,-1.7170011
3.13,-1.3936127
3.14,-1.4943889
3.15,-0.40680964
3.16,-1.2474823
3.17,-1.6979821
3.18,-1.3963518
3.19,-0.74795896
3.2,-1.2823869
3.21,-2.4347856
3.22,-2.8243509
3.23,-1.3007632
3.24,-1.5895897
3.25,1.2762997
3.26,-1.4924871
3.27,-2.4097017
3.28,0.59718049
3.29,-1.5284373
3.3,-1.3737971
3.31,-2.2526972
3.32,-1.1173538
3.33,-1.4253575
3.34,-2.2981954
3.35,-0.55241023
3.36,-1.2680257
3.37,-1.2345914
3.38,-2.8361341
3.39,-1.3162312
3.4,-2.4465862
3.41,-2.5753818
3.42,-1.7589785
3.43,0.75246219
3.44,0.3687589
3.45,-1.0720017
3.46,-0.5425084
3.47,-1.7478347
3.48,-1.3612999
3.49,-2.3880904
3.5,-1.4896621
3.51,-0.54964224
3.52,-2.0182673
3.53,-0.91471557
3.54,-2.3139529
3.55,-1.656561
3.56,0.35671047
3.57,1.5353876
3.58,-2.85393
3.59,-1.5485528
3.6,-1.3031465
3.61,-2.0669761
3.62,-1.4300216
3.63,-1.0501997
3.64,-1.4019591
3.65,0.81332453
3.66,-1.1692357
3.67,-1.479101
3.68,-1.0545822
3.69,-1.0414734
3.7,-1.4217028
3.71,-0.48348517
3.72,-2.9546983
3.73,-1.4982248
3.74,-2.574267
3.75,-1.3025035
3.76,-0.29228436
3.77,-2.0327427
3.78,-0.45560228
3.79,-1.4475028
3.8,-1.9630052
3.81,0.2425276
3.82,0.099274515
3.83,-1.930188
3.84,-1.732239
3.85,-0.65781764
3.86,-2.992541
3.87,-2.2736871
3.88,-2.2336584
3.89,-0.45210303
3.9,-1.1202198
3.91,-0.51248592
3.92,-1.3318355
3.93,-1.59984
3.94,-3.2667819
3.95,-1.8604869
3.96,-0.9265614
3.97,-2.2759457
3.98,-2.1310647
3.99,-2.3712973
4,-2.1281298
4.01,-0.61627131
4.02,0.10468453
4.03,-1.197272
4.04,-0.83865901
4.05,0.34067978
4.06,-1.9374848
4.07,-1.3222924
4.08,-2.6719759
4.09,-2.5469333
4.1,0.97134555
4.11,-1.5427159
4.12,0.35185047
4.13,-1.9277873
4.14,-2.7141468
4.15,-1.8926191
4.16,-2.3977877
4.17,-2.3496009
4.18,-2.4146079
4.19,-1.1923367
4.2,0.30104506
4.21,-2.7491046
4.22,-2.3343673
4.23,-1.1815949
4.24,0.22405131
4.25,-1.9835863
4.26,-1.1602268
4.27,0.060145761
4.28,-1.2311582
4.29,-2.537939
4.3,-0.71688202
4.31,-1.9909688
4.32,-1.121472
4.33,-1.1790549
4.34,-1.4347785
4.35,-0.13827331
4.36,0.28320415
4.37,-2.6444955
4.38,-1.8463259
4.39,-1.8675198
4.4,-2.5176795
4.41,0.022159454
4.42,-1.5006463
4.43,-1.868252
4.44,0.8410483
4.45,-1.7816337
4.46,0.12545843
4.47,0.22435255
4.48,-1.497576
4.49,-2.0016367
4.5,-0.52919569
4.51,-2.0870833
4.52,0.023516109
4.53,-0.3675438
4.54,-1.14606
4.55,0.89591029
4.56,-2.2838053
4.57,-1.0489532
4.58,1.1352625
4.59,1.5929739
4.6,-2.1958096
4.61,0.36268822
4.62,-1.6544953
4.63,-1.3547521
4.64,-1.977287
4.65,-1.3695568
4.66,0.7478674
4.67,-1.5639162
4.68,-1.439309
4.69,-0.78007448
4.7,0.3296952
4.71,-1.6102332
4.72,-1.4280535
4.73,-0.73071267
4.74,-0.94782996
4.75,-1.7657804
4.76,-1.6044504
4.77,-1.2578279
4.78,0.92532563
4.79,-0.90572876
4.8,-3.1883178
4.81,-1.4307259
4.82,-1.7341704
4.83,-1.5766579
4.84,-2.4995383
4.85,-1.2877661
4.86,-1.8089823
4.87,-1.1100397
4.88,-1.870374
4.89,-2.053792
4.9,-1.5249198
4.91,-1.7726915
4.92,-3.8543976
4.93,-1.1362656
4.94,-0.15606225
4.95,-2.6112264
4.96,-2.3981589
4.97,-2.9653559
4.98,-1.9033529
4.99,-2.5002499
5,-3.1209789
5.01,-2.1140915
5.02,-4.2267496
5.03,-1.9169491
5.04,-2.3166977
5.05,-3.1246406
5.06,-0.62875342
5.07,-2.7682156
5.08,-4.7573278
5.09,-4.0054703
5.1,-2.3996425
5.11,-3.4976732
5.12,-3.1661757
5.13,-4.3054131
5.14,-4.5875176
5.15,-4.0902159
5.16,-4.3297681
5.17,-4.2385065
5.18,-4.3605844
5.19,-2.2648747
5.2,-1.3600329
5.21,-4.0563065
5.22,-4.5754903
5.23,-3.7730267
5.24,-4.1391221
5.25,-4.5013909
5.26,-3.2850519
5.27,-3.6646108
5.28,-2.5652059
5.29,-3.4824572
5.3,-3.6606032
5.31,-2.9189979
5.32,-3.3605463
5.33,-3.5666005
5.34,-4.2239254
5.35,-4.3279322
5.36,-2.2330104
5.37,-3.0533929
5.38,-3.4704834
5.39,-3.7168025
5.4,-2.8340595
5.41,-3.9857084
5.42,-3.9388196
5.43,-3.114426
5.44,-4.4246553
5.45,-3.4298652
5.46,-3.4887134
5.47,-2.5785057
5.48,-1.3404733
5.49,-3.6007901
5.5,-2.2323968
5.51,-2.9385102
5.52,-4.1354464
5.53,-3.9867697
5.54,-3.4827231
5.55,-3.3332451
5.56,-3.023627
5.57,-3.9188277
5.58,-3.0681162
5.59,-4.0297027
5.6,-2.9839413
5.61,-3.7946474
5.62,-3.2251262
5.63,-3.7170599
5.64,-3.3819028
5.65,-2.8465266
5.66,-1.6033424
5.67,-2.2975115
5.68,-3.8662393
5.69,-4.0206522
5.7,-4.627501
5.71,-0.38128792
5.72,-1.804115
5.73,-4.4481606
5.74,-3.4547994
5.75,-5.0917593
5.76,-4.0758184
5.77,-4.7925215
5.78,-3.4569089
5.79,-4.2236202
5.8,-2.5392989
5.81,-3.9277671
5.82,-2.9094253
5.83,-2.4336126
5.84,-4.600107
5.85,-3.539836
5.86,-2.8758421
5.87,-3.9193353
5.88,-2.9895719
5.89,-2.7760855
5.9,-1.849362
5.91,-4.2021996
5.92,-4.2202414
5.93,-4.0797679
5.94,-3.0746872
5.95,-3.5714528
5.96,-2.5390243
5.97,-3.7399721
5.98,-3.3385022
5.99,-4.4824795
6,-4.3724158
6.01,-4.4667261
6.02,-1.229325
6.03,-2.8703865
6.04,-3.1190544
6.05,-2.681951
6.06,-4.1778257
6.07,-1.9899002
6.08,-1.3576648
6.09,-3.3757922
6.1,-3.0005959
6.11,-0.10539436
6.12,-4.4477424
6.13,-4.0799522
6.14,-3.8094612
6.15,-4.1277091
6.16,-3.3576268
6.17,-4.3307059
6.18,-4.0089458
6.19,-3.8766264
6.2,-1.8589857
6.21,-4.3802521
6.22,-1.6380443
6.23,-4.3931659
6.24,-3.7832735
6.25,-3.702464
6.26,-3.898929
6.27,-2.6406507
6.28,-4.4437719
6.29,-4.6000576
6.3,-3.6463339
6.31,-3.8617862
6.32,-4.2699454
6.33,-3.3182818
6.34,-4.3774067
6.35,-2.316428
6.36,-1.6930967
6.37,-2.9420344
6.38,-4.3041739
6.39,-1.0880898
6.4,-3.6012497
6.41,-3.7990333
6.42,-3.13788
6.43,-4.550643
6.44,-4.6563652
6.45,-2.8858812
6.46,-4.1224174
6.47,-2.2882235
6.48,-3.6316517
6.49,-2.906587
6.5,-3.2854517
6.51,-2.7634273
6.52,-3.7058289
6.53,-4.5123959
6.54,-4.437225
6.55,-4.1274191
6.56,-4.0566263
6.57,-3.6134638
6.58,-4.0990081
6.59,-3.0681199
6.6,-3.1432331
6.61,-4.1629228
6.62,-2.844764
6.63,-2.9704752
6.64,-3.4274081
6.65,-3.4648511
6.66,-3.5770485
6.67,-3.6072636
6.68,-3.8034243
6.69,-3.0888864
6.7,-4.5044627
6.71,-3.4485417
6.72,-3.8292905
6.73,-4.0294559
6.74,-0.92772017
6.75,-4.1756402
6.76,-3.5528796
6.77,-2.6373311
6.78,-2.7912172
6.79,-3.4240738
6.8,-0.86965471
6.81,-4.5236849
6.82,-4.0200099
6.83,-4.0119335
6.84,-4.2680956
6.85,-3.636509
6.86,-3.2964623
6.87,-2.475297
6.88,-0.99336888
6.89,-3.9557077
6.9,-3.3256504
6.91,-3.0929849
6.92,-3.1599368
6.93,-3.430665
6.94,-3.1188645
6.95,-3.4058055
6.96,-3.9614285
6.97,-4.5888045
6.98,-3.6081574
6.99,-3.6020925
7,-3.0593682
7.01,-4.7161222
7.02,-3.480616
7.03,-4.9501566
7.04,-4.9106014
7.05,-3.3478048
7.06,-3.7787226
7.07,-2.781249
7.08,-2.2858639
7.09,-3.3978146
7.1,1.6283885
7.11,-0.18707791
7.12,-3.6432477
7.13,-4.0933997
7.14,-3.5251263
7.15,-2.4011215
7.16,0.28711551
7.17,-3.1360366
7.18,-4.4421449
7.19,-3.1310042
7.2,-4.2517678
7.21,-3.6007307
7.22,-4.3140807
7.23,-2.6967513
7.24,-2.3730633
7.25,-4.0933081
7.26,-2.2915776
7.27,-4.0258416
7.28,-2.7262759
7.29,-4.2414571
7.3,-1.6385782
7.31,-4.0334709
7.32,-4.8425042
7.33,-2.9937192
7.34,-3.3902712
7.35,-3.9191762
7.36,-4.1406947
7.37,-3.6787431
7.38,-0.56002456
7.39,-3.8803737
7.4,-2.4061496
7.41,-4.4638589
7.42,-2.5287111
7.43,-3.5325768
7.44,-3.9887812
7.45,-2.6071478
7.46,-2.0900118
7.47,-4.035621
7.48,-3.613066
7.49,-4.0508284
7.5,-3.435121
7.51,-4.0732536
7.52,-3.8379623
7.53,-2.5508971
7.54,-3.2593589
7.55,-3.0521277
7.56,-2.0241576
7.57,-3.7138007
7.58,0.40850964
7.59,-2.3338651
7.6,-3.0019898
7.61,-4.212156
7.62,-3.4982948
7.63,-3.2076391
7.64,-2.8823587
7.65,-3.0544589
7.66,-2.9904605
7.67,-3.5700738
7.68,-3.847086
7.69,-2.9472398
7.7,-4.2405738
7.71,-2.5170714
7.72,-3.4556475
7.73,-3.6970107
7.74,-1.4944245
7.75,-3.2465417
7.76,-3.0059567
7.77,-4.6947833
7.78,-4.3766487
7.79,-3.8514627
7.8,-4.0683009
7.81,-3.9375844
7.82,-3.7916855
7.83,-0.11297427
7.84,-3.4054931
7.85,-4.0625085
7.86,-3.758212
7.87,-4.4913036
7.88,-4.228898
7.89,-3.0434235
7.9,-3.5328081
7.91,-3.1385245
7.92,-2.7247036
7.93,-4.0807419
7.94,-2.5101179
7.95,-3.7979874
7.96,-2.9739224
7.97,-3.6211799
7.98,-2.9044977
7.99,-0.93450807
8,-1.0366826
8.01,-4.3683577
8.02,-4.670029
8.03,-3.4657154
8.04,-4.4264161
8.05,-2.5926004
8.06,-3.9441606
8.07,-1.2330219
8.08,-4.0525743
8.09,-3.4917139
8.1,-2.9508188
8.11,-4.3876454
8.12,-3.8509154
8.13,-3.2239805
8.14,-3.3019005
8.15,-3.9591819
8.16,-4.4076642
8.17,-3.5526436
8.18,-4.117232
8.19,-2.5913321
8.2,-3.5707683
8.21,-0.68572971
8.22,-2.8300093
8.23,-1.4385848
8.24,-2.857088
8.25,-2.2319719
8.26,-3.543808
8.27,-1.4403274
8.28,-3.6078175
8.29,-3.2798752
8.3,-3.3012204
8.31,-4.1326272
8.32,-1.1555877
8.33,-4.0582182
8.34,-4.7769333
8.35,-3.5656887
8.36,-3.7425212
8.37,-4.1829081
8.38,-1.8773353
8.39,-2.1791658
8.4,-3.0408728
8.41,-2.6040148
8.42,-4.5321595
8.43,-1.7217083
8.44,-1.738691
8.45,-2.560023
8.46,-4.4309468
8.47,-2.7121701
8.48,-1.9942798
8.49,-3.5226995
8.5,-3.532549
8.51,-1.8566441
8.52,-4.1295719
8.53,-3.8965255
8.54,-3.8993885
8.55,-4.8254675
8.56,-2.9028117
8.57,-3.3352417
8.58,-1.7483232
8.59,-2.167262
8.6,1.0287813
8.61,-3.9946828
8.62,-3.7228944
8.63,-3.6487422
8.64,-3.4345192
8.65,-4.3859786
8.66,-3.7778199
8.67,-3.1500928
8.68,-3.007668
8.69,-2.4866519
8.7,-2.6536417
8.71,-3.1314853
8.72,-2.7178956
8.73,-3.8344949
8.74,-3.5142005
8.75,-0.49245401
8.76,-3.7449361
8.77,-3.38159
8.78,-3.793122
8.79,-3.8516793
8.8,-3.2094684
8.81,-2.1417313
8.82,-3.4018003
8.83,-3.214529
8.84,-3.8251991
8.85,-4.2192563
8.86,-4.6305743
8.87,-3.9274788
8.88,-2.8335209
8.89,-2.7520235
8.9,-1.3758863
8.91,-3.4534068
8.92,-2.6733371
8.93,-3.7989647
8.94,-3.6924616
8.95,-4.0883292
8.96,-3.5268109
8.97,-4.0617528
8.98,-3.5370367
8.99,-4.8958965
9,0.36649281
9.01,-3.5225005
9.02,-2.2373392
9.03,-3.7359206
9.04,-4.0998218
9.05,-3.3103386
9.06,-4.2138315
9.07,-3.5389937
9.08,-3.4947415
9.09,-1.9954643
9.1,-2.5700001
9.11,-4.400495
9.12,-2.7020991
9.13,-4.3645504
9.14,-0.3299322
9.15,-4.5698919
9.16,-4.4259084
9.17,-3.5436074
9.18,-3.2930661
9.19,-3.9693013
9.2,-4.3700141
9.21,-3.4454653
9.22,-4.0261302
9.23,-2.9603013
9.24,-3.8701665
9.25,-4.1832391
9.26,-2.736529
9.27,-3.7706276
9.28,-3.1685943
9.29,-4.5388923
9.3,-3.436333
9.31,-3.8656379
9.32,-2.9837307
9.33,-3.4385287
9.34,-2.3725972
9.35,-3.9875688
9.36,-2.6527887
9.37,-2.947144
9.38,-3.9818142
9.39,-3.7691755
9.4,-0.28448302
9.41,-3.2851297
9.42,-4.2197147
9.43,-4.9721319
9.44,-4.2319076
9.45,-2.4950947
9.46,-3.1525353
9.47,-3.1019982
9.48,-2.0698462
9.49,-1.0134441
9.5,-2.9194692
9.51,-3.1080994
9.52,-4.2035182
9.53,-4.4581938
9.54,-4.6364434
9.55,-4.1267726
9.56,-3.5152723
9.57,-3.2690441
9.58,-1.316167
9.59,-3.3257967
9.6,-2.8240217
9.61,-3.2639045
9.62,-4.0088728
9.63,-2.246015
9.64,-2.8637362
9.65,-2.9483247
9.66,-3.9803002
9.67,-3.1104868
9.68,-2.7983733
9.69,-4.2125911
9.7,-4.4194624
9.71,-4.1081753
9.72,-4.4602899
9.73,-3.5937753
9.74,-4.2028748
9.75,-3.5115393
9.76,-3.3226331
9.77,-1.6458086
9.78,-4.1145595
9.79,-3.3614268
9.8,-1.866264
9.81,-3.5073526
9.82,-4.65367
9.83,-4.5039598
9.84,-3.7680184
9.85,-0.48329208
9.86,-1.6144931
9.87,-2.9103287
9.88,-3.5632727
9.89,-3.2606949
9.9,-3.9081707
9.91,-3.8063531
9.92,-4.1945636
9.93,-3.2416705
9.94,-1.8731691
9.95,-3.9122608
9.96,-3.6634019
9.97,-0.56026862
9.98,-2.0084496
9.99,-4.0849897
10,-2.8241051
10.01,-3.0177577
10.02,-4.1749517
10.03,-4.0564942
10.04,-3.6079085
10.05,-4.4969804
10.06,-4.1332552
10.07,-4.3205358
10.08,-3.7503688
10.09,-3.0940484
10.1,-3.0499771
10.11,-3.6720292
10.12,-1.9008954
10.13,-4.0045516
10.14,-3.6129813
10.15,-4.5823017
10.16,-4.3351223
10.17,-2.1072321
10.18,-1.5604385
10.19,-2.7348293
10.2,-2.5594834
10.21,-3.8824223
10.22,-4.5309126
10.23,-4.395126
10.24,-2.5874071
10.25,-3.8431275
10.26,-1.9733254
10.27,-4.4419684
10.28,-3.8171481
10.29,-4.4542204
10.3,-2.3702094
10.31,-3.3834208
10.32,-3.7353604
10.33,-3.1665085
10.34,-3.4378619
10.35,-3.776014
10.36,-3.6918267
10.37,-1.2613169
10.38,-3.8862781
10.39,-2.917846
10.4,0.051570552
10.41,-0.92651269
10.42,-2.9984258
10.43,-3.6794689
10.44,-3.371169
10.45,-3.0400943
10.46,-3.2020443
10.47,-4.7522009
10.48,-2.5714427
10.49,-2.2133452
10.5,-4.2434251
10.51,-3.407605
10.52,-4.0573646
10.53,-2.0976524
10.54,-3.7949868
10.55,-1.9605721
10.56,-3.2361314
10.57,-4.4855597
10.58,-3.9593871
10.59,-3.9606599
10.6,-3.0366291
10.61,-3.1946598
10.62,-3.2486818
10.63,-2.0180693
10.64,-4.3298546
10.65,-3.8927307
10.66,-2.5490464
10.67,-3.715453
10.68,-2.3453435
10.69,-3.5224179
10.7,-2.4455686
10.71,-3.4795906
10.72,-1.3171738
10.73,-3.0484368
10.74,-4.5579011
10.75,-3.2064721
10.76,-2.957392
10.77,-3.4844426
10.78,-3.0405891
10.79,-4.055291
10.8,-3.7904986
10.81,-3.548896
10.82,-3.3835203
10.83,-1.8211578
10.84,-3.8502497
10.85,-4.0260003
10.86,-2.680968
10.87,-3.3462991
10.88,-3.3940306
10.89,-4.1326435
10.9,-3.9756889
10.91,-4.0459016
10.92,-1.381312
10.93,-2.6056676
10.94,-3.3807813
10.95,-2.4321636
10.96,-3.4950312
10.97,-1.8160647
10.98,-3.9503859
10.99,-3.8990454
11,-4.2346414
11.01,-3.904283
11.02,-4.3287908
11.03,-3.1815985
11.04,-4.3016939
11.05,-4.0738115
11.06,-3.8468063
11.07,-3.6196144
11.08,-4.2171096
11.09,-2.9768499
11.1,-3.3786345
11.11,-0.96192015
11.12,-4.2965898
11.13,-4.0969705
11.14,-3.1761253
11.15,-2.5231806
11.16,-3.9347303
11.17,-4.1376094
11.18,-3.935036
11.19,-3.8744335
11.2,-2.4540778
11.21,-3.8672266
11.22,-3.1598778
11.23,-3.6003507
11.24,-4.1718088
11.25,-4.6848545
11.26,-2.4137119
11.27,-2.7908483
11.28,-4.019883
11.29,-3.7148531
11.3,-0.12784999
11.31,-2.0193877
11.32,-4.1704413
11.33,-3.1240165
11.34,-3.6958763
11.35,-4.1735896
11.36,-2.3284801
11.37,-1.8529375
11.38,-3.5933014
11.39,-2.9395828
11.4,-1.0899753
11.41,-3.023062
11.42,-2.7404947
11.43,-3.5523817
11.44,-3.4110125
11.45,-4.4855485
11.46,-3.2863113
11.47,-4.1793778
11.48,-3.6274281
11.49,-3.1874693
11.5,-1.2598328
11.51,-1.1491221
11.52,-2.9497763
11.53,-3.5420913
11.54,-2.5714392
11.55,-4.4651231
11.56,-3.7825675
11.57,-3.7537934
11.58,-2.1316809
11.59,-2.9739918
11.6,-1.6144734
11.61,-4.3507855
11.62,-3.2249128
11.63,-1.02557
11.64,-4.2914335
11.65,-4.5705427
11.66,-4.1998691
11.67,-2.9694393
11.68,-2.2095454
11.69,-4.283163
11.7,-3.7802368
11.71,-3.1359136
11.72,-3.0962912
11.73,-4.4064696
11.74,-0.72698164
11.75,-2.3111383
11.76,-2.5833865
11.77,-2.7473754
11.78,-4.08793
11.79,-3.3796393
11.8,-3.8990436
11.81,-3.4915988
11.82,-2.9652746
11.83,-3.1292376
11.84,-4.737811
11.85,-3.3892236
11.86,-2.3235577
11.87,-3.2226462
11.88,-3.0461428
11.89,-2.0527476
11.9,-2.4187262
11.91,-0.96945084
11.92,-2.6930885
11.93,-2.9786176
11.94,-1.4164269
11.95,-3.0246288
11.96,-3.0201434
11.97,-3.4779663
11.98,-4.1639178
11.99,-4.487078
12,-1.7007828
12.01,-4.1709024
12.02,-4.5072371
12.03,-2.3679709
12.04,-3.1374427
12.05,-1.9733584
12.06,-3.2609575
12.07,-1.9233705
12.08,-3.9036189
12.09,-4.1895924
12.1,-1.9190388
12.11,-3.3775466
12.12,-4.5387777
12.13,-3.6561188
12.14,-3.5882781
12.15,-3.3088911
12.16,-4.4556212
12.17,-3.6275412
12.18,-4.0973959
12.19,-1.8474119
12.2,-3.6176949
12.21,-4.2305389
12.22,-2.4680007
12.23,-4.1945019
12.24,-3.6188804
12.25,-3.461901
12.26,-3.177406
12.27,-4.0379917
12.28,-4.0022281
12.29,-1.2891632
12.3,-3.6429969
12.31,-3.7563048
12.32,-2.7812181
12.33,-1.7490927
12.34,-4.4705278
12.35,-3.2558698
12.36,-3.9746107
12.37,-3.5756666
12.38,-3.3802947
12.39,-3.1218751
12.4,-4.0943882
12.41,-3.7837392
12.42,-4.1452297
12.43,-1.4141429
12.44,-3.4389562
12.45,-3.4726986
12.46,-4.3758977
12.47,-2.9474235
12.48,-2.8384112
12.49,-3.9145293
12.5,-4.1279558
12.51,-1.200319
12.52,-3.3669187
12.53,-4.1404787
12.54,-4.286241
12.55,-1.5163868
12.56,-4.2251336
12.57,-0.002035889
12.58,-3.4263145
12.59,-3.7830615
12.6,-3.6290913
12.61,-1.5175664
12.62,-3.1919451
12.63,-3.6459538
12.64,-2.7747395
12.65,-3.2942352
12.66,-4.2215886
12.67,-3.8787295
12.68,-3.2789081
12.69,-2.3593063
12.7,-2.0395864
12.71,-2.0989188
12.72,-3.9631457
12.73,-4.2887468
12.74,-4.6392275
12.75,-3.2270859
12.76,-4.5825887
12.77,-2.0804132
12.78,-3.4437398
12.79,-0.058180125
12.8,-4.0060988
12.81,-3.4043955
12.82,-2.8912664
12.83,-2.80358
12.84,-3.189121
12.85,-3.8792293
12.86,-3.6572099
12.87,-3.7684541
12.88,-1.7680105
12.89,-2.4184045
12.9,-3.7228035
12.91,-3.2721213
12.92,-1.7611074
12.93,-1.2364514
12.94,-4.1502217
12.95,-1.6533327
12.96,-4.2583317
12.97,-2.6549422
12.98,-3.9273141
12.99,-4.0657594
13,-3.9646004
13.01,-3.3534315
13.02,-2.7295873
13.03,-3.5323702
13.04,-2.5711497
13.05,-1.1961199
13.06,-4.2251565
13.07,-4.4291399
13.08,-4.2569898
13.09,-2.4109365
13.1,0.2550401
13.11,-3.8713014
13.12,-2.528043
13.13,-3.926304
13.14,-2.8311354
13.15,-3.2450671
13.16,-2.0340498
13.17,-4.3817639
13.18,-3.1571953
13.19,-3.7630178
13.2,-2.1988924
13.21,-3.1865591
13.22,-3.7240716
13.23,-3.205402
13.24,-4.1397734
13.25,-2.9731269
13.26,-3.1259097
13.27,-4.0294884
13.28,-3.9715612
13.29,-3.6921181
13.3,-4.0428259
13.31,-3.6881035
13.32,-4.1010438
13.33,-3.2129902
13.34,-3.1689247
13.35,-3.8131744
13.36,-4.2966071
13.37,-4.3991427
13.38,-4.2868175
13.39,-4.3872638
13.4,-3.7115464
13.41,-4.529897
13.42,-3.9720455
13.43,-2.493956
13.44,-3.5033391
13.45,-1.7100979
13.46,-4.2049304
13.47,-3.999786
13.48,-3.7247273
13.49,-2.7310274
13.5,-3.5555544
13.51,-4.4839037
13.52,-3.3806759
13.53,-0.71104465
13.54,-3.760751
13.55,-2.5060944
13.56,-3.6132391
13.57,-3.1261865
13.58,-4.6389478
13.59,-4.1370703
13.6,-4.2012078
13.61,-3.1060354
13.62,-3.810743
13.63,-4.0233859
13.64,-3.9004797
13.65,-4.2022137
13.66,-4.4045903
13.67,-3.6781374
13.68,-3.2001927
13.69,-0.74231998
13.7,-4.2765224
13.71,-3.0153926
13.72,-2.6916252
13.73,0.86747796
13.74,-3.2477425
13.75,-4.2423541
13.76,-3.7758485
13.77,-3.7913962
13.78,-2.7270273
13.79,-3.1854129
13.8,-3.8345214
13.81,-4.6168342
13.82,-3.3253648
13.83,-4.0323866
13.84,-3.8010545
13.85,-3.5799174
13.86,-0.71017197
13.87,-3.3342055
13.88,-3.2861929
13.89,-3.0707932
13.9,-1.6919491
13.91,-0.78002356
13.92,-4.4050479
13.93,-3.8662687
13.94,-3.4079208
13.95,-0.61027832
13.96,-3.5109133
13.97,-4.0070681
13.98,-3.4644954
13.99,-3.0400191
14,-2.5433446
14.01,-3.617822
14.02,-2.4950293
14.03,-4.4826178
14.04,-4.1404055
14.05,-3.8582258
14.06,-3.811947
14.07,-3.9534813
14.08,-3.5913243
14.09,-3.5266147
14.1,-2.1568085
14.11,-2.4011117
14.12,-3.4782095
14.13,-3.9731668
14.14,-3.903848
14.15,-4.579625
14.16,-1.8443124
14.17,-1.6214063
14.18,-3.2902951
14.19,-2.4471892
14.2,-4.4835035
14.21,-3.2033803
14.22,-2.6550655
14.23,-4.5187287
14.24,-3.7408773
14.25,-3.3757184
14.26,-4.8241462
14.27,-1.7992356
14.28,-3.0892121
14.29,-2.3079524
14.3,-3.4317282
14.31,-3.4201079
14.32,-0.46893373
14.33,-2.2100078
14.34,-4.1880892
14.35,-3.9713354
14.36,-4.1348878
14.37,-4.1697441
14.38,-3.7149782
14.39,-1.2810557
14.4,1.3540401
14.41,-3.0952439
14.42,-3.9034219
14.43,-2.928742
14.44,-2.9547886
14.45,-1.181543
14.46,-2.7374611
14.47,-3.4404696
14.48,-3.6678511
14.49,-2.6272956
14.5,-3.2574569
14.51,-3.3837826
14.52,-3.0716058
14.53,-4.0050204
14.54,-3.9630276
14.55,-4.417321
14.56,-3.9132748
14.57,-3.5978064
14.58,-4.5284767
14.59,-1.5688042
14.6,-3.8778464
14.61,-3.3983726
14.62,-3.14706
14.63,-1.5731288
14.64,-1.561619
14.65,-3.8740201
14.66,-2.3481268
14.67,-3.5454903
14.68,-3.4246938
14.69,-4.0468026
14.7,-3.9512541
14.71,-3.6692102
14.72,-3.8777923
14.73,-0.64821991
14.74,-2.3456688
14.75,-3.3692805
14.76,-3.5711822
14.77,-4.1763075
14.78,-3.4339137
14.79,-2.0968127
14.8,-2.9839256
14.81,-4.7067339
14.82,-3.8619222
14.83,-2.420486
14.84,-3.1388249
14.85,-1.5835472
14.86,-3.4558187
14.87,-3.5622966
14.88,-3.8216059
14.89,-3.1568997
14.9,-2.4978565
14.91,-3.8119489
14.92,-3.6941584
14.93,-4.2840453
14.94,-3.966596
14.95,-2.5546393
14.96,-2.3573656
14.97,-3.3746113
14.98,-3.8481583
14.99,-3.1553823
15,-3.8973007
15.01,-0.88384768
15.02,-3.3943563
15.03,-1.6442496
15.04,-3.4473684
15.05,-4.1556418
15.06,-3.7687323
15.07,-2.1061404
15.08,-2.2802888
15.09,-3.6251151
15.1,-2.5092857
15.11,-3.6677191
15.12,-3.7577263
15.13,-1.6909216
15.14,-3.8908257
15.15,-4.2517965
15.16,-3.3980169
15.17,-4.2440827
15.18,-1.8845819
15.19,-3.9790487
15.2,-4.2883612
15.21,-1.3962218
15.22,-2.9112316
15.23,-4.1577846
15.24,-3.1304416
15.25,0.29102684
15.26,-4.2531063
15.27,-3.3069226
15.28,-2.9617746
15.29,-4.0891927
15.3,-3.0997501
15.31,-3.948923
15.32,-4.0469859
15.33,-3.8120982
15.34,-3.9810941
15.35,-3.1395476
15.36,-4.3415076
15.37,-4.2550696
15.38,-3.2253802
15.39,-4.0602034
15.4,-3.7755511
15.41,-3.0580349
15.42,-3.7148281
15.43,-2.5854824
15.44,-4.5499222
15.45,-2.0118905
15.46,-4.603979
15.47,-2.2200573
15.48,-3.4927449
15.49,-2.8377154
15.5,-4.1522577
15.51,-4.2314382
15.52,-3.7204834
15.53,-2.1874379
15.54,-2.4279798
15.55,-4.5501376
15.56,-3.6073064
15.57,-4.3954846
15.58,-3.859986
15.59,-2.975011
15.6,-4.5494496
15.61,-1.027686
15.62,-2.1404493
15.63,-2.0218444
15.64,-1.0193337
15.65,-3.2207935
15.66,-3.0508488
15.67,-4.1785911
15.68,-3.6779316
15.69,-4.2850035
15.7,-3.7950389
15.71,-2.8315671
15.72,-3.138814
15.73,-4.000706
15.74,-4.4134796
15.75,-4.2256634
15.76,-3.1324934
15.77,-4.432942
15.78,-3.3710631
15.79,-1.7776427
15.8,-4.3117779
15.81,-3.2137979
15.82,-2.5721723
15.83,-4.4325546
15.84,-3.9629021
15.85,-2.013512
15.86,-2.6072261
15.87,-4.1246969
15.88,-3.0321219
15.89,-3.7430907
15.9,-3.9010779
15.91,-3.6590228
15.92,-3.9924047
15.93,-2.2420717
15.94,-1.5735748
15.95,-2.7558089
15.96,-3.5621461
15.97,-3.2729624
15.98,-3.7375756
15.99,-4.009258
16,-2.4198756
16.01,-3.570897
16.02,-2.8087346
16.03,-1.5175518
16.04,-1.898766
16.05,-2.512556
16.06,-4.2274899
16.07,-4.1102603
16.08,-3.1450202
16.09,-2.1083627
16.1,-2.8196311
16.11,-2.6911768
16.12,-4.1447914
16.13,-3.8932845
16.14,-4.2607861
16.15,0.30670332
16.16,-1.3472216
16.17,-3.3238789
16.18,-4.1453371
16.19,-3.041972
16.2,-4.2700147
16.21,-3.7217324
16.22,-4.0720742
16.23,-3.4479577
16.24,-0.23782038
16.25,-1.9909333
16.26,-1.521004
16.27,-3.5585656
16.28,-3.619259
16.29,-1.7571384
16.3,-2.9933384
16.31,-3.3530012
16.32,-2.1413476
16.33,-3.0978787
16.34,-3.5252108
16.35,-4.0953081
16.36,-2.8690162
16.37,-3.3427188
16.38,-3.3611086
16.39,-1.2951664
16.4,-3.791947
16.41,-4.1209826
16.42,-4.2630706
16.43,-3.9900206
16.44,-3.2968759
16.45,-2.9010336
16.46,-3.5596214
16.47,-2.7698199
16.48,-0.4151876
16.49,-2.0611348
16.5,-3.0763527
16.51,-1.2735232
16.52,-4.117301
16.53,-2.689391
16.54,-3.623841
16.55,-2.2060961
16.56,-2.4292679
16.57,-1.800232
16.58,-3.1347699
16.59,-4.4656307
16.6,-0.89761212
16.61,-3.6972
16.62,-4.2607155
16.63,-2.7718261
16.64,-3.0656901
16.65,-4.3434305
16.66,-3.7511964
16.67,-3.7524535
16.68,-4.1014653
16.69,-3.0963683
16.7,-4.634443
16.71,-4.3260564
16.72,-3.2600943
16.73,-3.2335355
16.74,-3.9517779
16.75,-4.2291003
16.76,-2.9038849
16.77,-4.2879738
16.78,-3.2175169
16.79,-3.1679674
16.8,-2.5224013
16.81,-2.5287468
16.82,-3.5174577
16.83,-2.8884242
16.84,-3.8481545
16.85,-3.0515348
16.86,-3.742831
16.87,-3.3864799
16.88,-4.5373198
16.89,-3.689457
16.9,-4.0743471
16.91,-2.0413052
16.92,-2.7004179
16.93,-3.3508485
16.94,-4.3421822
16.95,-4.2810251
16.96,-2.921082
16.97,-4.3840683
16.98,-3.5993186
16.99,-1.6820461
17,-2.9870684
17.01,-1.3578943
17.02,-4.2623775
17.03,-4.0539781
17.04,-3.9985611
17.05,-3.4385368
17.06,-2.0588184
17.07,-3.4645691
17.08,-4.2891818
17.09,-4.6332799
17.1,-4.025679
17.11,-4.0392902
17.12,-2.0695245
17.13,-3.5459753
17.14,-2.2818184
17.15,-3.7873926
17.16,-3.9632226
17.17,-3.2430578
17.18,-3.273379
17.19,-3.6839433
17.2,-3.294061
17.21,-4.0169895
17.22,-2.8861969
17.23,-4.0651879
17.24,-2.1158588
17.25,-3.4356369
17.26,-4.1194024
17.27,-4.0706768
17.28,-3.6656015
17.29,-3.098415
17.3,-3.4087818
17.31,-4.5151722
17.32,-4.2212745
17.33,-2.4471698
17.34,-1.4380697
17.35,-3.4056657
17.36,-4.290548
17.37,-3.6708066
17.38,-2.93554
17.39,-2.5799097
17.4,-3.356658
17.41,-3.3000818
17.42,-4.1452654
17.43,-4.149325
17.44,-1.9073801
17.45,-2.0656488
17.46,-1.9815111
17.47,-3.8372317
17.48,-3.8480322
17.49,-4.7266638
17.5,-3.9766879
17.51,-3.4372735
17.52,-1.1892691
17.53,-3.4963302
17.54,-2.0117596
17.55,-3.8213685
17.56,-3.2013033
17.57,-4.2007762
17.58,-4.0942783
17.59,-3.3981137
17.6,-3.2967705
17.61,-3.6810392
17.62,-3.9466082
17.63,-4.4885678
17.64,-3.7572974
17.65,-3.7317177
17.66,-3.1615049
17.67,-2.6719203
17.68,-2.45414
17.69,-3.165057
17.7,-3.6306554
17.71,-3.5221129
17.72,-4.4544529
17.73,-3.6406515
17.74,-4.6067711
17.75,-3.7564289
17.76,-4.4880795
17.77,-2.5502557
17.78,-3.7675218
17.79,-3.5490203
17.8,-4.2635083
17.81,-2.2021882
17.82,-4.5236044
17.83,-2.575019
17.84,-0.49998767
17.85,-3.7929832
17.86,-4.0271171
17.87,-2.6462146
17.88,-4.2619291
17.89,-3.6283223
17.9,-2.3846651
17.91,-3.7325591
17.92,-4.4139877
17.93,-3.3484646
17.94,-2.5219143
17.95,-3.6208169
17.96,-2.7596866
17.97,-2.773501
17.98,-4.1142931
17.99,-3.2362342
18,-2.7879681
18.01,-2.8828717
18.02,-3.9681219
18.03,-3.3035433
18.04,-3.8690735
18.05,-4.5357946
18.06,-1.7656132
18.07,-1.6695628
18.08,-3.5021719
18.09,-3.7517585
18.1,-3.7890053
18.11,-3.3921397
18.12,-2.0733764
18.13,-3.6945015
18.14,-3.4394811
18.15,-4.1509625
18.16,-3.6232048
18.17,-4.0729045
18.18,-4.3655549
18.19,-2.2411448
18.2,-4.1307503
18.21,-4.0956445
18.22,-3.6165738
18.23,-4.4720989
18.24,-1.4507757
18.25,-2.8864916
18.26,-1.7780011
18.27,-4.0407663
18.28,-2.3706188
18.29,-4.0408311
18.3,-3.9694856
18.31,-3.6647086
18.32,-2.3964298
18.33,-3.910488
18.34,-4.1296497
18.35,-3.831767
18.36,-4.5658738
18.37,-3.4511687
18.38,-4.1429752
18.39,-2.9283986
18.4,-3.8634897
18.41,-4.7008553
18.42,-2.1012689
18.43,-3.1909923
18.44,-1.8968724
18.45,-3.5108965
18.46,-3.4128641
18.47,-2.0506498
18.48,-4.0850341
18.49,-1.2381348
18.5,-4.2321408
18.51,-4.1789742
18.52,-3.7269982
18.53,-4.0854432
18.54,-4.4673204
18.55,-4.6416611
18.56,-2.1761866
18.57,-4.4880086
18.58,-4.3849939
18.59,-3.8965954
18.6,-3.2778172
18.61,-2.52261
18.62,-4.1716125
18.63,-2.0479727
18.64,-2.4392434
18.65,-3.5909691
18.66,-2.3547819
18.67,-3.9984647
18.68,-1.4486301
18.69,-1.5255844
18.7,-3.9969672
18.71,-3.5693527
18.72,-3.0259371
18.73,-3.8625783
18.74,-4.2464755
18.75,-1.3888362
18.76,-3.1438165
18.77,-3.9635148
18.78,-2.6039141
18.79,-2.9904262
18.8,-2.8236981
18.81,-4.3821432
18.82,-4.1026714
18.83,-3.1687191
18.84,-3.3332183
18.85,-3.77344
18.86,-2.6831573
18.87,-2.2135487
18.88,-2.0807552
18.89,-2.7264435
18.9,-3.6918224
18.91,-4.1593797
18.92,-1.7381722
18.93,-0.82314284
18.94,-2.7751075
18.95,-4.8477266
18.96,-2.0464219
18.97,-3.1701485
18.98,-3.8036267
18.99,-3.6569076
19,-3.3640588
19.01,-4.1814788
19.02,-2.3342045
19.03,-3.9408266
19.04,-4.7109191
19.05,-4.0584346
19.06,-3.8979246
19.07,-2.7239204
19.08,-2.8770211
19.09,-4.1858764
19.1,-3.3726785
19.11,-2.8622406
19.12,-4.632431
19.13,-4.3241529
19.14,-2.5892613
19.15,-0.29183611
19.16,-1.4757832
19.17,-3.9710722
19.18,-4.2184633
19.19,-4.2700661
19.2,-4.0061338
19.21,-3.7264507
19.22,-4.3287556
19.23,-3.9460827
19.24,-4.4983919
19.25,-3.6404005
19.26,-1.92887
19.27,-3.99233
19.28,-1.5689682
19.29,-3.8871182
19.3,-3.7823616
19.31,-4.1159791
19.32,-4.6437723
19.33,-1.9829103
19.34,-3.5415353
19.35,-4.2179847
19.36,-0.96514254
19.37,-3.1671977
19.38,-3.8211834
19.39,-4.6405379
19.4,-1.3197464
19.41,-2.9772569
19.42,-3.7563233
19.43,-3.088857
19.44,-2.2689156
19.45,-1.7192095
19.46,-3.7731695
19.47,-3.9458142
19.48,-3.4147171
19.49,-2.7576419
19.5,-2.9282275
19.51,-1.3761781
19.52,-2.3181353
19.53,-2.2178384
19.54,-3.8859917
19.55,-3.9890701
19.56,-0.16153337
19.57,-1.4546185
19.58,-3.1131045
19.59,-4.0494866
19.6,-3.2965459
19.61,-3.5514689
19.62,-3.0512367
19.63,-4.8292561
19.64,-3.7571287
19.65,-4.5206884
19.66,-2.8933584
19.67,-4.291498
19.68,-1.4751428
19.69,-3.7263243
19.7,-3.8077345
19.71,-3.8219188
19.72,-3.1831071
19.73,-0.62010376
19.74,-0.85187425
19.75,-4.5186149
19.76,-4.2902607
19.77,-3.76074
19.78,-0.74699394
19.79,-1.9787779
19.8,-3.8208019
19.81,-1.5279952
19.82,-1.1315366
19.83,-4.6259817
19.84,-2.8038816
19.85,-3.2940156
19.86,-3.0838164
19.87,-2.3995708
19.88,0.24704559
19.89,-3.6164782
19.9,-4.3982586
19.91,-2.3347608
19.92,-4.7658861
19.93,-4.6370726
19.94,-1.0669705
19.95,-3.3383351
19.96,-4.1354939
19.97,-3.584268
19.98,-3.3737715
19.99,-3.0518084
20,-3.9992078
20.01,-3.2659865
20.02,-3.0740069
20.03,-4.8097595
20.04,-4.1795065
20.05,-4.5486718
20.06,-1.9206488
20.07,-3.1304038
20.08,-4.0736111
20.09,-3.8914454
20.1,-3.0251143
20.11,-1.7946113
20.12,-3.9044576
20.13,-3.4779819
20.14,-3.5205906
20.15,-1.4331421
20.16,-4.2219032
20.17,-0.49613736
20.18,-4.9799502
20.19,-3.6301026
20.2,-1.59047
20.21,-3.6997288
20.22,-2.8821729
20.23,-4.1743705
20.24,-3.9474829
20.25,-4.0145432
20.26,-2.4382436
20.27,-0.11082959
20.28,-3.6323332
20.29,-3.3579518
20.3,-1.6811287
20.31,-2.5979313
20.32,-2.3964388
20.33,-2.32797
20.34,-4.2277248
20.35,-3.5085796
20.36,-1.5685823
20.37,-3.3150159
20.38,-3.3764266
20.39,-4.0240706
20.4,0.7989476
20.41,-3.5993144
20.42,-3.8928318
20.43,-3.5488178
20.44,-3.6158508
20.45,-3.3048982
20.46,-4.5602039
20.47,-3.9273055
20.48,-1.9454086
20.49,-2.9303803
20.5,-3.2252607
20.51,-3.0753799
20.52,-2.1377253
20.53,-3.5097394
20.54,-3.8316265
20.55,-3.384662
20.56,-4.3783071
20.57,-3.6040903
20.58,-3.3029783
20.59,-3.1869772
20.6,-3.9311423
20.61,-2.9114217
20.62,-4.5214915
20.63,-2.802114
20.64,-4.2895208
20.65,-1.9800394
20.66,-3.5689921
20.67,-3.5909911
20.68,-4.6785087
20.69,-3.5519847
20.7,-4.7815737
20.71,-4.0564123
20.72,-3.2648958
20.73,-2.1866267
20.74,-4.2273545
20.75,-3.6008944
20.76,-2.9574939
20.77,-3.0350108
20.78,-2.2344449
20.79,-1.5015827
20.8,-4.0936655
20.81,-4.0032193
20.82,-4.6239207
20.83,-3.8752536
20.84,-4.2206412
20.85,-1.5660045
20.86,-3.3861391
20.87,-1.1224493
20.88,-3.1012085
20.89,-3.1617604
20.9,-2.7059469
20.91,-3.7145022
20.92,-3.0301247
20.93,-2.335212
20.94,-3.1403271
20.95,-3.9419362
20.96,-3.621629
20.97,-2.5102661
20.98,-3.5158313
20.99,-3.9198634
21,-3.5622516
21.01,-2.1964992
21.02,-3.1977064
21.03,-2.6742845
21.04,-3.379114
21.05,-3.7927752
21.06,-2.8800122
21.07,-2.5794294
21.08,-3.849411
21.09,-4.993167
21.1,-3.3572039
21.11,-4.0744487
21.12,-4.0408873
21.13,-3.3818888
21.14,-3.6142039
21.15,-2.4383076
21.16,-3.7555144
21.17,-3.9664131
21.18,-4.0743319
21.19,-3.0103623
21.2,-4.059839
21.21,-3.9118309
21.22,-2.3246133
21.23,-3.3111816
21.24,-2.7940432
21.25,-4.0020487
21.26,-4.1593416
21.27,-3.9897839
21.28,-3.4778793
21.29,-3.0161859
21.3,-2.6836488
21.31,-4.1233998
21.32,-4.1416792
21.33,-3.172544
21.34,-3.3317121
21.35,-3.3504812
21.36,-3.3776318
21.37,-2.9753278
21.38,-3.8294571
21.39,-3.1221683
21.4,-3.7552151
21.41,-3.3911112
21.42,-3.148577
21.43,-2.6131284
21.44,-1.6536194
21.45,-1.2210548
21.46,-4.3392871
21.47,-4.6494026
21.48,-3.9038931
21.49,-3.97442
21.5,-4.1863765
21.51,-3.4718248
21.52,-3.444406
21.53,-2.7024247
21.54,-2.8584173
21.55,-2.865847
21.56,-4.2927076
21.57,-3.0564844
21.58,-4.3776945
21.59,-4.16224
21.6,-4.6797925
21.61,-3.0421669
21.62,-3.6688293
21.63,-3.1798533
21.64,-2.2950658
21.65,-2.7226336
21.66,-3.0612766
21.67,-2.697398
21.68,-4.1479267
21.69,-3.0972954
21.7,-2.8231261
21.71,-4.0496647
21.72,-4.2985042
21.73,-2.6776121
21.74,-3.2392738
21.75,-3.2969545
21.76,-3.8703867
21.77,-4.3536
21.78,-3.9321031
21.79,-4.614447
21.8,-4.1944345
21.81,-3.8695616
21.82,-4.5642983
21.83,-2.7740208
21.84,-4.3249378
21.85,-3.7084934
21.86,-4.6167924
21.87,-4.2087753
21.88,-1.9677641
21.89,-3.5684961
21.9,-3.3126977
21.91,-3.0258876
21.92,-3.0710715
21.93,-3.3031158
21.94,-2.9162564
21.95,-2.8019782
21.96,-4.4838908
21.97,0.44175171
21.98,-1.3564136
21.99,-3.9261085
22,-4.5129041
22.01,-3.1168243
22.02,-3.2035154
22.03,-4.4498238
22.04,-3.7293471
22.05,-2.4422459
22.06,-2.5409809
22.07,-0.79530029
22.08,-4.8529497
22.09,-3.7700381
22.1,-2.5074434
22.11,-3.4733605
22.12,-2.3861071
22.13,-2.7037365
22.14,-2.9817009
22.15,-3.3788697
22.16,-2.6773614
22.17,-2.3883853
22.18,-3.3967618
22.19,-3.439948
22.2,-4.4231895
22.21,-2.9745217
22.22,-4.2227073
22.23,-3.2374477
22.24,-4.3473576
22.25,-3.1348322
22.26,-3.3351432
22.27,-3.6541572
22.28,-3.558848
22.29,-3.8904021
22.3,-3.031183
22.31,-4.1802025
22.32,-4.1878369
22.33,-4.5932441
22.34,-2.8832666
22.35,-4.0943835
22.36,-2.3773588
22.37,-4.1100035
22.38,-4.2323173
22.39,-3.9077729
22.4,-3.375032
22.41,-2.4254969
22.42,-2.2413163
22.43,-4.0391254
22.44,-3.8463538
22.45,-4.061429
22.46,-2.9384942
22.47,-3.8813124
22.48,-3.4266903
22.49,-0.69672756
22.5,-3.9036049
22.51,-4.5915739
22.52,-3.1059596
22.53,-3.1041197
22.54,-2.3283364
22.55,-3.43302
22.56,-3.0662637
22.57,-3.6306614
22.58,-1.5210786
22.59,-3.6034574
22.6,-3.0613619
22.61,-3.4340418
22.62,-3.2716899
22.63,-4.8095853
22.64,-4.3538252
22.65,-3.1579498
22.66,-3.5572884
22.67,-2.6837262
22.68,-4.5041664
22.69,-4.2753103
22.7,-4.3342249
22.71,-3.2912628
22.72,-4.1519891
22.73,-3.7357601
22.74,-1.6210159
22.75,-3.3479464
22.76,-2.9214418
22.77,-1.9302579
22.78,-4.2996058
22.79,-1.1752939
22.8,-3.5317067
22.81,-2.2404328
22.82,-3.8073543
22.83,-4.0333695
22.84,-4.1496995
22.85,-0.38350686
22.86,-4.5254526
22.87,-1.9336432
22.88,-3.204752
22.89,-4.0283311
22.9,-1.0589376
22.91,-4.8497798
22.92,-3.2370685
22.93,-2.1108138
22.94,-4.4226029
22.95,-4.1510328
22.96,-0.70998922
22.97,-2.9171123
22.98,-2.5470842
22.99,-4.6883291
23,-2.9468983
23.01,-4.2465838
23.02,-3.8532103
23.03,-1.8413932
23.04,-4.1754864
23.05,-4.4242106
23.06,-4.5512643
23.07,-4.6171229
23.08,-3.0411942
23.09,-1.3059263
23.1,-4.4094101
23.11,-3.8195185
23.12,-3.7660762
23.13,-4.377955
23.14,-4.0513431
23.15,-2.9091081
23.16,-3.8614819
23.17,-3.1990701
23.18,-3.684171
23.19,-3.3725543
23.2,-1.5934043
23.21,-4.3516094
23.22,-2.6987746
23.23,-4.0276544
23.24,-4.293481
23.25,-3.9794142
23.26,-2.9673462
23.27,-3.6871436
23.28,-2.9482802
23.29,-3.8860979
23.3,-3.7526049
23.31,-3.1481626
23.32,-4.0411445
23.33,-4.8104381
23.34,-1.985595
23.35,-3.7197542
23.36,-3.9934882
23.37,-3.6392265
23.38,-1.8997083
23.39,-4.2566269
23.4,-4.0204189
23.41,-4.7246982
23.42,-1.9328531
23.43,-4.5396661
23.44,-3.3518515
23.45,-2.4585672
23.46,-3.7519178
23.47,-3.3385823
23.48,-2.2960325
23.49,-3.9164413
23.5,-3.8256141
23.51,-4.1147177
23.52,-4.3294009
23.53,-4.1274164
23.54,-0.25585023
23.55,-3.9725286
23.56,-2.1960384
23.57,-3.9687056
23.58,-3.2869646
23.59,-3.0062887
23.6,-3.5439154
23.61,-3.2485674
23.62,-3.4395929
23.63,-3.6962768
23.64,-4.3130105
23.65,-3.6049365
23.66,-4.3279682
23.67,-2.0615204
23.68,-3.9404366
23.69,-4.0143044
23.7,-1.0768345
23.71,-4.1128759
23.72,-3.6960134
23.73,-4.300871
23.74,-3.7079075
23.75,-4.1156098
23.76,-2.0393553
23.77,-2.7325077
23.78,-4.65033
23.79,-3.5853324
23.8,-3.4841407
23.81,-4.805264
23.82,-3.3348187
23.83,-0.75019301
23.84,-1.7588584
23.85,-3.1881791
23.86,-1.9576967
23.87,-3.6391785
23.88,-3.0147103
23.89,-2.5219904
23.9,-3.4206396
23.91,-3.5576744
23.92,-3.7414413
23.93,-3.4351476
23.94,-2.4965107
23.95,-4.1124997
23.96,-2.1376164
23.97,-4.2406386
23.98,-4.3164395
23.99,-3.6595606
24,-3.961988
24.01,-1.545388
24.02,-1.8321875
24.03,-3.0608611
24.04,-3.7164179
24.05,-4.0426358
24.06,-3.0125206
24.07,-3.5728816
24.08,-1.7486804
24.09,-3.8583666
24.1,-4.4002571
24.11,-4.4141478
24.12,-1.8579538
24.13,-4.3638097
24.14,-3.3197638
24.15,-4.0574463
24.16,-3.319846
24.17,-4.133453
24.18,-3.7643619
24.19,-4.0491463
24.2,-3.8136802
24.21,-4.4773373
24.22,-4.0661177
24.23,-4.615853
24.24,-1.673358
24.25,-3.7299595
24.26,-3.6410281
24.27,-3.7245098
24.28,-4.0403653
24.29,-2.614462
24.3,-4.0089174
24.31,-3.4567157
24.32,-2.8553152
24.33,-2.577094
24.34,-3.6644116
24.35,-2.8490725
24.36,-4.6156939
24.37,-3.8714444
24.38,-4.6247928
24.39,-4.3157719
24.4,-1.3104515
24.41,-4.4297438
24.42,-2.3048594
24.43,-2.6287442
24.44,-2.5136837
24.45,-3.6072593
24.46,-2.7837615
24.47,-4.3782505
24.48,-4.3239044
24.49,-4.5555823
24.5,-4.8181683
24.51,-4.5940889
24.52,-2.7528434
24.53,-4.4856385
24.54,-2.5914705
24.55,-3.6556803
24.56,-2.8858466
24.57,-3.6326312
24.58,-4.2952127
24.59,-4.2386313
24.6,-2.0347504
24.61,-2.2754511
24.62,-2.0145985
24.63,-4.4662723
24.64,-4.4971678
24.65,-3.5177377
24.66,-3.6762205
24.67,-4.0084612
24.68,-1.3044886
24.69,-3.82119
24.7,-1.8902706
24.71,-3.6505502
24.72,-3.5151921
24.73,-4.0814734
24.74,-2.8219654
24.75,-2.9263601
24.76,-2.3636427
24.77,-2.065495
24.78,-4.0202035
24.79,-1.7997885
24.8,-4.3833137
24.81,-1.9803796
24.82,-3.5888241
24.83,-1.1403717
24.84,-3.4143652
24.85,-3.529458
24.86,-4.4552934
24.87,-3.1297638
24.88,-3.0458573
24.89,-2.81113
24.9,-2.3447118
24.91,-3.3865843
24.92,-1.7844548
24.93,-3.3296598
24.94,-4.4711726
24.95,-4.2270811
24.96,-4.1170179
24.97,-3.2881563
24.98,-2.1777297
24.99,-4.2201361
25,-2.7989773
25.01,-3.2642135
25.02,-3.7531711
25.03,-3.9188611
25.04,-3.0115428
25.05,-4.1192139
25.06,-3.5479511
25.07,-4.1251806
25.08,-4.4633979
25.09,-4.573329
25.1,-3.8798903
25.11,-1.4402347
25.12,-3.7742183
25.13,-3.7843195
25.14,-3.5527387
25.15,-3.09102
25.16,-1.7671524
25.17,-1.6442986
25.18,-4.2687182
25.19,-4.2804652
25.2,-3.2798042
25.21,-3.4695476
25.22,-4.1973332
25.23,-3.3538965
25.24,-3.0846185
25.25,-3.4340701
25.26,-4.215201
25.27,-3.9816587
25.28,-3.2848818
25.29,-4.1568714
25.3,-2.1627414
25.31,-4.4134055
25.32,-2.8020717
25.33,-4.6942888
25.34,-0.054703669
25.35,-3.372859
25.36,-3.8077215
25.37,-2.2526217
25.38,-0.49142371
25.39,-3.7723796
25.4,-3.5206833
25.41,-4.0752647
25.42,-3.4925726
25.43,-2.0022536
25.44,-3.6993818
25.45,-3.0935351
25.46,-2.0145305
25.47,-4.0525729
25.48,-3.9898275
25.49,-0.60442075
25.5,-4.4369165
25.51,-2.2512628
25.52,-1.4265366
25.53,-3.1763897
25.54,-3.8299595
25.55,-1.8719251
25.56,-3.3042167
25.57,-4.3985133
25.58,-4.0648879
25.59,-4.0473358
25.6,-3.4229192
25.61,-3.9557134
25.62,-1.2796659
25.63,-4.3795298
25.64,-4.1365773
25.65,-3.6273369
25.66,-4.3521466
25.67,-3.2294819
25.68,-4.0407564
25.69,-3.8663894
25.7,-4.0281292
25.71,-3.1437224
25.72,-3.309913
25.73,-4.2631473
25.74,-4.3831646
25.75,-3.1540773
25.76,-2.5298122
25.77,-3.1222065
25.78,-2.9074314
25.79,-2.0427671
25.8,-3.122151
25.81,-2.8348941
25.82,-3.6821185
25.83,-2.6285653
25.84,-4.1399705
25.85,-4.4311346
25.86,-4.0403229
25.87,-4.2670909
25.88,-4.6188179
25.89,-3.5072853
25.9,-4.0087157
25.91,-4.3216535
25.92,-1.3378382
25.93,-0.19913997
25.94,-3.0403769
25.95,-3.1075348
25.96,-2.9994836
25.97,-3.7907406
25.98,-3.7962231
25.99,-1.1651797
26,-3.5286162
26.01,-1.5197631
26.02,-4.7291201
26.03,0.15811193
26.04,-2.1700721
26.05,-3.5325603
26.06,-3.9209253
26.07,-3.6756889
26.08,-3.7998881
26.09,-4.8529525
26.1,-3.9406188
26.11,-3.1993912
26.12,-2.715639
26.13,-4.3070767
26.14,-4.0107828
26.15,-3.583671
26.16,-2.8001429
26.17,-4.1593926
26.18,-4.3721919
26.19,-3.9485552
26.2,-3.1404865
26.21,-3.514006
26.22,-2.3903373
26.23,-4.2660642
26.24,-4.6637675
26.25,-3.3618648
26.26,-2.084617
26.27,-4.3669764
26.28,-4.1092677
26.29,-4.24705
26.3,-3.7354257
26.31,-2.7031517
26.32,-3.6819994
26.33,-3.6116304
26.34,-3.0053433
26.35,-3.1257203
26.36,-2.509091
26.37,-2.717852
26.38,-3.8406694
26.39,-3.6101696
26.4,-3.249016
26.41,-4.9319075
26.42,-3.4073753
26.43,-3.6996457
26.44,-4.5315475
26.45,-3.7140234
26.46,-3.521174
26.47,-3.5569894
26.48,-3.2807185
26.49,0.30220897
26.5,-3.8226918
26.51,-3.6010137
26.52,-2.7545073
26.53,-3.5996355
26.54,-3.6956533
26.55,-2.3470418
26.56,-3.9535666
26.57,-4.1120674
26.58,-2.7862881
26.59,-4.1243887
26.6,-2.9991656
26.61,-2.9937054
26.62,-4.0223777
26.63,-0.95571583
26.64,-1.9006675
26.65,-4.3728218
26.66,-4.1052007
26.67,-3.0285871
26.68,-4.2893714
26.69,-2.9424215
26.7,-2.6007079
26.71,-2.308741
26.72,-4.2025991
26.73,-3.7856647
26.74,-2.9651032
26.75,-4.0271348
26.76,-2.4836688
26.77,-4.152515
26.78,-4.3720996
26.79,-2.5809371
26.8,-2.5155389
26.81,-3.5361527
26.82,-4.2126288
26.83,-3.4499683
26.84,-3.0450266
26.85,-3.2526599
26.86,-3.2858185
26.87,-3.2946921
26.88,-3.6629664
26.89,-4.7337188
26.9,-3.98123
26.91,-3.2093002
26.92,-3.6444001
26.93,-3.370811
26.94,-2.7758451
26.95,-4.1905133
26.96,-2.7203673
26.97,-1.8381796
26.98,-3.346024
26.99,-2.8211313
27,-3.3003719
27.01,-3.0302586
27.02,-3.7079911
27.03,-3.9230022
27.04,-3.2567794
27.05,-3.4018604
27.06,-3.5217697
27.07,-3.4018807
27.08,-3.0299326
27.09,-4.5273597
27.1,-3.2082268
27.11,-3.953848
27.12,-4.1536002
27.13,-1.7133062
27.14,-3.5562145
27.15,-2.3019621
27.16,-4.3236781
27.17,-3.4991782
27.18,-3.1014255
27.19,-2.1545983
27.2,-4.1251353
27.21,-2.8224718
27.22,-3.1946073
27.23,-3.8970386
27.24,-3.2540498
27.25,-4.4383723
27.26,-3.3154885
27.27,-3.9956126
27.28,-4.0813875
27.29,-3.8132537
27.3,-3.4136905
27.31,-2.1510577
27.32,-4.1158402
27.33,-4.6348932
27.34,-4.2692478
27.35,-3.8532983
27.36,-4.0936069
27.37,-0.57755003
27.38,-4.6465381
27.39,-3.3709787
27.4,-4.2377866
27.41,-2.2505293
27.42,-3.0843791
27.43,-3.8859204
27.44,-3.9948172
27.45,-4.0449123
27.46,-4.1775366
27.47,-3.446574
27.48,-3.704943
27.49,-1.7842967
27.5,-3.7405361
27.51,-3.9011293
27.52,-2.7122682
27.53,-3.9203486
27.54,-2.0334711
27.55,-4.0754095
27.56,0.32152457
27.57,-1.5589394
27.58,-2.0415645
27.59,-2.3123816
27.6,-3.183403
27.61,-4.275313
27.62,-3.6773727
27.63,-3.6120405
27.64,-3.3951158
27.65,-1.4800055
27.66,-3.8059081
27.67,-3.8350807
27.68,-3.2215274
27.69,-3.6543774
27.7,-4.5963616
27.71,-4.16962
27.72,-3.7659429
27.73,-2.7393799
27.74,-4.1046887
27.75,-4.3608663
27.76,-4.1984803
27.77,-3.8976367
27.78,-4.1161228
27.79,-2.0056139
27.8,-2.029425
27.81,-3.6581389
27.82,-4.2742271
27.83,-3.9426851
27.84,-3.443469
27.85,-3.4043201
27.86,-4.0602604
27.87,-2.6308276
27.88,-4.6632904
27.89,-2.6173584
27.9,-3.1566245
27.91,-3.8770419
27.92,-4.1529216
27.93,-4.2787114
27.94,-2.4900126
27.95,-3.9303063
27.96,-3.7589935
27.97,-3.5606443
27.98,-4.7859791
27.99,-3.4328909
28,-4.245513
28.01,-4.3092765
28.02,-3.3648695
28.03,-3.4502056
28.04,-4.0740299
28.05,-1.2571539
28.06,-1.2037219
28.07,-1.1927888
28.08,-4.2000557
28.09,-3.5338593
28.1,-3.3801896
28.11,-3.4604629
28.12,-3.6518243
28.13,-2.8446904
28.14,-4.5509917
28.15,-3.6813136
28.16,-4.7208515
28.17,-2.7511032
28.18,-3.2605537
28.19,-1.3777676
28.2,-4.6071446
28.21,-3.598215
28.22,-3.3849181
28.23,-3.0485208
28.24,-3.7736823
28.25,-4.5329914
28.26,-3.6057703
28.27,-2.0146391
28.28,-3.630552
28.29,-3.1626471
28.3,-0.92975542
28.31,-2.8995287
28.32,-1.7682901
28.33,-3.2656672
28.34,-3.152746
28.35,-1.915357
28.36,-4.2041807
28.37,-3.436145
28.38,-3.1478854
28.39,-4.0622048
28.4,-2.912768
28.41,-1.1447887
28.42,-3.8935327
28.43,-3.4596748
28.44,-2.894766
28.45,-4.6292178
28.46,-0.66481734
28.47,-2.7057697
28.48,-2.9336848
28.49,-4.3403056
28.5,-2.8485041
28.51,-3.7485313
28.52,-2.2013409
28.53,-3.6090242
28.54,-4.3612988
28.55,-4.2792032
28.56,-4.2152208
28.57,-2.6722036
28.58,-3.5931983
28.59,-4.8325757
28.6,-4.396415
28.61,-4.5232921
28.62,-2.4190232
28.63,-3.7729914
28.64,-2.8019773
28.65,-2.4671624
28.66,-4.3170116
28.67,-4.0186303
28.68,-2.8142713
28.69,-2.4618622
28.7,-3.8499264
28.71,-2.6604887
28.72,-3.8078938
28.73,-3.8644523
28.74,-3.9598995
28.75,-3.6141584
28.76,-2.8687394
28.77,-3.8455832
28.78,-4.5572765
28.79,-0.79803326
28.8,-2.4997533
28.81,-2.0411414
28.82,-4.0188109
28.83,-3.9025185
28.84,-3.5874187
28.85,-3.6590589
28.86,-0.74764032
28.87,-4.6580496
28.88,-2.5561741
28.89,-3.2460619
28.9,-3.9776629
28.91,-3.9758853
28.92,-4.2961585
28.93,-4.9575909
28.94,-4.1628699
28.95,-4.2287242
28.96,-4.2912947
28.97,-4.3100424
28.98,-4.4231023
28.99,-4.3584378
29,-1.4091717
29.01,-4.1510623
29.02,-5.1324592
29.03,-0.88029366
29.04,-1.345993
29.05,-4.0630432
29.06,-2.637788
29.07,-3.7619183
29.08,-3.3677626
29.09,-3.1289224
29.1,-2.4678183
29.11,-3.9568766
29.12,-1.5222317
29.13,-4.2364414
29.14,-3.2307889
29.15,-2.615799
29.16,-3.0510357
29.17,-3.0731056
29.18,-3.5382474
29.19,-3.7601036
29.2,-4.112973
29.21,-4.6330104
29.22,-3.535134
29.23,-3.9323049
29.24,-0.84784256
29.25,-2.4536832
29.26,-3.3312624
29.27,-4.3914248
29.28,-2.3035623
29.29,-4.5171233
29.3,-4.0467356
29.31,-4.0937899
29.32,-3.4971696
29.33,-2.9319367
29.34,-3.5298646
29.35,-3.0839118
29.36,-0.57861335
29.37,-4.1348336
29.38,-2.6055404
29.39,-2.4172124
29.4,-3.1879391
29.41,-3.8060766
29.42,-4.8616104
29.43,-4.3987175
29.44,-4.133452
29.45,-4.4776528
29.46,-3.4651699
29.47,-2.7652917
29.48,-2.7458534
29.49,-3.3993031
29.5,-1.0392054
29.51,-4.1442835
29.52,-4.1771411
29.53,-3.8608573
29.54,-4.3986034
29.55,-4.1971344
29.56,-4.2199039
29.57,-4.2433864
29.58,-0.58774745
29.59,-3.3972076
29.6,-3.5368121
29.61,-4.3326993
29.62,-3.8318962
29.63,-3.9709329
29.64,-2.11452
29.65,-3.3962576
29.66,-3.6743126
29.67,-0.74424845
29.68,-2.2532649
29.69,-4.2882794
29.7,-3.9356713
29.71,-2.9545489
29.72,-3.6301735
29.73,-2.381029
29.74,-4.1090469
29.75,-3.7701652
29.76,-3.4220817
29.77,-2.5185471
29.78,-2.9261832
29.79,-3.2211605
29.8,-2.4315648
29.81,-2.2586526
29.82,-3.5182128
29.83,-3.6758819
29.84,-4.5412874
29.85,-2.1501357
29.86,-4.3383323
29.87,-2.9473979
29.88,-4.1156856
29.89,-4.1803726
29.9,-2.6862014
29.91,-3.7185637
29.92,-4.6104611
29.93,-3.0211797
29.94,0.50181922
29.95,-2.6737694
29.96,-3.0188787
29.97,-3.6363881
29.98,-1.3054732
29.99,-3.6501735
30,-4.2195573
30.01,-3.9571877
30.02,-3.9725683
30.03,-3.4087669
30.04,-3.3881859
30.05,-1.9653267
30.06,-3.14514
30.07,-2.8237225
30.08,-4.1764015
30.09,-1.0315222
30.1,-3.5492324
30.11,-1.3966352
30.12,-3.1012651
30.13,-3.4874976
30.14,-3.5743998
30.15,-4.1318677
30.16,-3.4467185
30.17,-2.6173002
30.18,-4.3978015
30.19,-2.4213989
30.2,-4.5344227
30.21,-3.4939821
30.22,-3.499682
30.23,-2.8075526
30.24,-3.4046529
30.25,-3.2676625
30.26,-4.6240855
30.27,-3.6305012
30.28,-3.2040346
30.29,-3.9139887
30.3,-2.5614234
30.31,-3.3702665
30.32,-2.4720138
30.33,-1.2211526
30.34,-3.991025
30.35,-2.9574447
30.36,-2.9941778
30.37,-4.0456031
30.38,-2.6314689
30.39,-1.7126717
30.4,-0.79671925
30.41,-3.0345106
30.42,-3.025219
30.43,-2.9206972
30.44,-3.0899234
30.45,-2.3084545
30.46,-3.4629062
30.47,-4.0077437
30.48,-4.3338647
30.49,-3.069076
30.5,-0.18061285
30.51,-3.9625992
30.52,-4.2794448
30.53,-1.9820534
30.54,-4.26505
30.55,-3.2139667
30.56,-4.0638411
30.57,-4.4875282
30.58,-4.4285862
30.59,-1.6969944
30.6,-3.2462341
30.61,-3.8269965
30.62,-3.9779802
30.63,-3.4608234
30.64,-3.4871653
30.65,-3.0352925
30.66,-4.0994751
30.67,-3.2895722
30.68,-4.2163925
30.69,-4.3286387
30.7,-3.842922
30.71,-4.2343284
30.72,0.42816245
30.73,-2.7375222
30.74,-4.3678876
30.75,-1.8974728
30.76,-2.8943954
30.77,-3.7040929
30.78,-4.4147493
30.79,-4.1041145
30.8,-3.996974
30.81,-3.7181649
30.82,-2.345608
30.83,-4.3887627
30.84,-2.0504634
30.85,-3.4316632
30.86,-4.2878966
30.87,-3.4506229
30.88,-4.0623645
30.89,-4.4280635
30.9,-1.8867035
30.91,-3.2561367
30.92,-2.2664912
30.93,-3.5887058
30.94,-4.0940229
30.95,-3.8134371
30.96,-3.8860498
30.97,-2.7870355
30.98,-2.9103057
30.99,-4.2862526
31,-0.42535229
31.01,-2.34088
31.02,-3.8533213
31.03,-2.2768373
31.04,-3.7554042
31.05,-3.8183752
31.06,-0.47662826
31.07,-3.7820691
31.08,-1.6552505
31.09,-3.3848928
31.1,-4.3521998
31.11,-4.796713
31.12,-3.9945896
31.13,-2.7989172
31.14,-1.6793834
31.15,-3.3017696
31.16,-2.5617076
31.17,-2.1425438
31.18,-3.2240806
31.19,-0.13517312
31.2,-3.7906571
31.21,-3.9643721
31.22,-3.1932811
31.23,-3.9760497
31.24,-3.784877
31.25,-3.8505782
31.26,-3.7373184
31.27,-4.225774
31.28,-1.1965577
31.29,-1.398786
31.3,-1.6628617
31.31,-1.9407353
31.32,-1.5915629
31.33,-1.6194405
31.34,-1.1178396
31.35,-0.91090516
31.36,-1.4833799
31.37,-1.9104433
31.38,-1.7545064
31.39,-1.8544955
31.4,-1.0005809
31.41,-1.278503
31.42,-2.1895166
31.43,-1.6640537
31.44,-0.910341
31.45,-0.94279122
31.46,-1.6517218
31.47,-1.8960303
31.48,-2.0882751
31.49,-0.38055324
31.5,-1.0563878
31.51,-2.1493712
31.52,-0.9082653
31.53,-1.9914335
31.54,-0.77127126
31.55,-0.65351802
31.56,-1.4405942
31.57,-1.0561114
31.58,-0.95192289
31.59,0.14384167
31.6,-0.62005325
31.61,-1.4185969
31.62,-1.9785593
31.63,0.28539453
31.64,-0.74080445
31.65,-0.81398711
31.66,-3.5443542
31.67,-2.306307
31.68,-1.9030773
31.69,-1.7417534
31.7,-2.7825386
31.71,-2.4410514
31.72,-2.2928386
31.73,-2.7265328
31.74,-1.2694711
31.75,-2.7872008
31.76,-2.1271859
31.77,-2.5779197
31.78,-2.2055258
31.79,-2.0171058
31.8,-1.3842164
31.81,-2.6832043
31.82,-2.7619166
31.83,-2.8843846
31.84,-2.3289002
31.85,-3.2371041
31.86,-0.96366035
31.87,0.27148302
31.88,-2.868737
31.89,-2.3835747
31.9,-2.4008838
31.91,-2.6226959
31.92,-1.2883297
31.93,-2.4392143
31.94,-2.299104
31.95,-3.5119188
31.96,-3.0614862
31.97,-3.492534
31.98,-2.1678403
31.99,0.14204473
32,-3.009781
32.01,-3.2302536
32.02,-1.3532121
32.03,-1.9175012
32.04,-1.1762372
32.05,0.10351522
32.06,-2.5794146
32.07,-1.64926
32.08,-1.2337574
32.09,-1.832536
32.1,0.87762838
32.11,-0.66270736
32.12,0.78151082
32.13,-0.62132704
32.14,-1.2941135
32.15,-1.1219677
32.16,0.1940108
32.17,-0.6231532
32.18,-2.0955508
32.19,-2.1360401
32.2,-1.4388052
32.21,-1.4736764
32.22,-1.3152371
32.23,-2.3059473
32.24,-2.7706012
32.25,-1.3015146
32.26,-1.8889922
32.27,-2.2481652
32.28,-0.70301179
32.29,-0.41051079
32.3,-0.93822501
32.31,-1.6405118
32.32,-3.1295015
32.33,-0.72518485
32.34,-2.51457
32.35,-2.1655419
32.36,-1.4741049
32.37,-0.87050664
32.38,-2.1798363
32.39,-2.3783162
32.4,-3.1123216
32.41,-2.4262678
32.42,-1.418549
32.43,-2.0249319
32.44,-3.0396191
32.45,-1.8034995
32.46,-2.3822936
32.47,-2.801528
32.48,-0.83079443
32.49,-2.7400313
32.5,-1.6536872
32.51,-2.6882525
32.52,0.24478152
32.53,-1.7715269
32.54,-2.536448
32.55,-0.95571112
32.56,-2.4006488
32.57,-2.475307
32.58,-1.9427805
32.59,-2.3423117
32.6,-2.4880754
32.61,-0.82436686
32.62,-2.003282
32.63,-2.9808375
32.64,-2.5335813
32.65,-2.1391825
32.66,-2.5339268
32.67,-2.1887497
32.68,-3.2426392
32.69,-2.0144219
32.7,-2.363874
32.71,-2.8982802
32.72,-1.4166928
32.73,-2.8243272
32.74,-2.5651625
32.75,-2.0287565
32.76,-2.5089949
32.77,-2.8880287
32.78,-3.6816566
32.79,-2.9517667
32.8,-3.2467099
32.81,-2.0634033
32.82,-0.4927316
32.83,-2.0744417
32.84,-1.4640467
32.85,-3.0942991
32.86,-1.3099328
32.87,-1.7339002
32.88,-1.0008464
32.89,-1.4164753
32.9,-1.7362243
32.91,-1.2519745
32.92,-1.474021
32.93,-1.1514377
32.94,-1.3584489
32.95,-0.57278518
32.96,-1.5445688
32.97,-2.3055833
32.98,-2.1234907
32.99,-1.4156101
33,-1.0354713
33.01,-0.83825385
33.02,-1.803759
33.03,-1.9475363
33.04,-1.4229462
33.05,-2.3527518
33.06,-0.966973
33.07,-1.6305458
33.08,-1.2375247
33.09,-1.1865079
33.1,-0.36391777
33.11,-1.8852133
33.12,-1.4339053
33.13,-1.0541623
33.14,-1.3010195
33.15,-0.95140609
33.16,0.39984171
33.17,-1.3955066
33.18,-1.6944572
33.19,-0.96069371
33.2,-1.7333147
33.21,-1.5170491
33.22,-0.97828444
33.23,-1.4121808
33.24,-1.8180965
33.25,-1.4695163
33.26,-1.8305278
33.27,-1.2340245
33.28,-1.3193713
33.29,-1.6365467
33.3,-2.0832507
33.31,-1.5493562
33.32,0.60460801
33.33,-1.4470221
33.34,-1.5131085
33.35,-1.5804909
33.36,-2.0044937
33.37,-1.4442442
33.38,-2.1242333
33.39,-2.311833
33.4,-2.4259305
33.41,-2.5429226
33.42,-1.9173105
33.43,-2.329203
33.44,-2.3696234
33.45,-2.1957629
33.46,-3.3764567
33.47,-3.3429216
33.48,-2.1464911
33.49,-2.4952583
33.5,-2.1283999
33.51,-1.5684639
33.52,-3.3597578
33.53,-2.3515551
33.54,-1.9461101
33.55,-2.076684
33.56,-4.0455071
33.57,-2.7607762
33.58,-2.5202032
33.59,-3.3343696
33.6,-0.64502753
33.61,-2.0346502
33.62,-1.3908879
33.63,-1.3800884
33.64,-1.1851458
33.65,-1.5526308
33.66,-2.041452
33.67,-1.2142453
33.68,-2.0907962
33.69,-1.9916279
33.7,-1.5785158
33.71,-1.368584
33.72,-0.50608887
33.73,-1.9634013
33.74,-0.89757089
33.75,-1.7666139
33.76,-0.94607311
33.77,-1.9981146
33.78,-2.7130578
33.79,-2.2860213
33.8,-0.94120599
33.81,-1.5325312
33.82,-2.1890085
33.83,-1.9973456
33.84,-1.6576252
33.85,-1.5484379
33.86,-1.154506
33.87,-2.5359759
33.88,-1.2713999
33.89,-1.3458952
33.9,-1.6979239
33.91,-3.4938468
33.92,-0.8373011
33.93,0.23647337
33.94,-2.072921
33.95,-1.7530011
33.96,-1.2388542
33.97,-0.72595881
33.98,-2.3563009
33.99,-2.258987
34,-1.9703477
34.01,-1.6601875
34.02,-2.5323422
34.03,-1.4694784
34.04,-1.4580499
34.05,-1.022251
34.06,-2.9264701
34.07,-1.6199316
34.08,-1.8976125
34.09,-1.3883554
34.1,-2.0527657
34.11,-1.9687517
34.12,-1.654666
34.13,-1.064779
34.14,-3.0072893
34.15,-1.2208702
34.16,-2.4934554
34.17,-2.1504896
34.18,-2.4378363
34.19,-2.3241675
34.2,-1.7930643
34.21,-1.6730722
34.22,-1.6279313
34.23,-1.3795124
34.24,-2.8925288
34.25,-0.55775317
34.26,-2.2643171
34.27,-2.0899271
34.28,-1.8719719
34.29,-1.7295632
34.3,0.6520016
34.31,-0.14291466
34.32,-3.5926977
34.33,0.29488498
34.34,-1.5898784
34.35,-0.20393781
34.36,-0.70508253
34.37,-2.3675928
34.38,-1.8908946
34.39,-1.8309234
34.4,-1.563337
34.41,-2.6114771
34.42,-1.5891188
34.43,-2.0430546
34.44,-2.5078582
34.45,-2.1917575
34.46,-2.2505669
34.47,-2.2289081
34.48,-1.7623227
34.49,-1.889979
34.5,-0.99465202
34.51,-2.6605629
34.52,-2.4974818
34.53,-1.0321902
34.54,-1.9992797
34.55,-2.1291383
34.56,-2.0771181
34.57,-2.3937458
34.58,-1.3564123
34.59,-2.2272583
34.6,-2.0745103
34.61,-3.1618222
34.62,-1.5565007
34.63,-2.389145
34.64,-2.1653113
34.65,-2.4101798
34.66,-2.1898899
34.67,-2.1917
34.68,-2.2225948
34.69,-1.9931294
34.7,-1.8081795
34.71,-0.70310761
34.72,-2.4061376
34.73,-0.69058174
34.74,-2.2059063
34.75,-1.7204487
34.76,-0.46644651
34.77,-2.6827411
34.78,-3.3012318
34.79,-1.649721
34.8,-3.4383287
34.81,-1.6804333
34.82,-0.69068728
34.83,-1.2480323
34.84,-1.8188913
34.85,-1.6068745
34.86,-1.8983472
34.87,-2.0211463
34.88,-1.9512464
34.89,-1.8917127
34.9,-1.4328209
34.91,-0.91773346
34.92,-1.8102858
34.93,-2.5713272
34.94,-3.2579029
34.95,-2.5833655
34.96,-2.6690515
34.97,-2.695942
34.98,-1.5196366
34.99,-2.2696235
35,-2.1459056
35.01,-1.0798174
35.02,-2.0801615
35.03,-1.8631974
35.04,-1.2428765
35.05,-2.2166218
35.06,-1.9269579
35.07,-1.8052108
35.08,-1.6874548
35.09,-1.7942532
35.1,-2.1538568
35.11,-1.9845967
35.12,-1.3331972
35.13,-1.7920808
35.14,-1.9655108
35.15,-2.0325855
35.16,-2.5858722
35.17,-1.8127544
35.18,-2.2505292
35.19,-2.0936797
35.2,-0.47252778
35.21,-1.6379337
35.22,-1.7000728
35.23,-0.91776917
35.24,-1.5277513
35.25,-1.2056948
35.26,-1.4794776
35.27,-1.2002739
35.28,-1.5304649
35.29,0.35367782
35.3,0.077211883
35.31,-0.035490301
35.32,-1.3247709
35.33,-0.32845129
35.34,-0.1626438
35.35,-1.5575419
35.36,-2.228079
35.37,-1.5396639
35.38,-2.2838825
35.39,-2.3443077
35.4,-2.6792723
35.41,0.20266622
35.42,-2.2784068
35.43,-2.439671
35.44,-2.3659664
35.45,-2.2604677
35.46,-2.0971311
35.47,0.0612796
35.48,-2.0311542
35.49,-1.8782171
35.5,-1.7403409
35.51,-1.2921724
35.52,-1.2736565
35.53,-0.75494286
35.54,-0.80359355
35.55,-1.7370251
35.56,-0.41428312
35.57,-1.5058856
35.58,-0.55190525
35.59,-0.88006584
35.6,-0.77676642
35.61,-1.1530355
35.62,-2.2727983
35.63,-0.61089411
35.64,-0.12547202
35.65,-0.96379947
35.66,-0.94677296
35.67,-1.0238559
35.68,-0.524069
35.69,-1.3045882
35.7,-0.60056609
35.71,-1.2012175
35.72,-0.16396175
35.73,-1.4776076
35.74,-2.7772771
35.75,-1.6146574
35.76,-1.1572426
35.77,-2.3080606
35.78,-0.85297701
35.79,-1.596103
35.8,-1.5286866
35.81,-0.63188714
35.82,-1.2726479
35.83,-0.9315217
35.84,-1.2483665
35.85,-1.7065581
35.86,-0.96783829
35.87,0.073011757
35.88,-1.733193
35.89,-0.90708397
35.9,-0.013939408
35.91,-0.94285216
35.92,-0.43737636
35.93,-2.5163114
35.94,-0.81283446
35.95,-3.0399232
35.96,-1.0137927
35.97,-1.5478915
35.98,-1.3187851
35.99,-0.78210958
36,-0.83621873
36.01,-1.5541224
36.02,-1.3166393
36.03,-2.158086
36.04,-1.1544623
36.05,-1.4529527
36.06,0.23692363
36.07,-0.9710952
36.08,-1.580585
36.09,-1.7166766
36.1,-0.83428341
36.11,-0.60039944
36.12,-1.0684014
36.13,-0.83231642
36.14,-0.91693607
36.15,-0.27800236
36.16,-0.83707169
36.17,-1.2310738
36.18,-0.71194088
36.19,-1.0313153
36.2,-0.87818605
36.21,-1.5479371
36.22,-0.90910248
36.23,-1.2122926
36.24,-1.2392753
36.25,-0.87967739
36.26,-0.85515642
36.27,-0.6979509
36.28,-0.75014463
36.29,-1.8246663
36.3,-1.2550388
36.31,-1.3580863
36.32,-1.4154328
36.33,-1.5674995
36.34,-1.5387977
36.35,-1.1311676
36.36,-1.154228
36.37,-0.74040898
36.38,-1.0129533
36.39,-0.60029822
36.4,-1.5038324
36.41,-1.0439074
36.42,-1.1704265
36.43,-1.9847851
36.44,-0.82190961
36.45,-1.9269429
36.46,-1.2035413
36.47,-1.6847283
36.48,-2.3375085
36.49,-0.41878759
36.5,-0.75592242
36.51,-1.8060494
36.52,-1.686848
36.53,-0.48425372
36.54,-0.55517052
36.55,-2.3201797
36.56,-1.1018124
36.57,-2.6830129
36.58,-0.53383326
36.59,-2.4089737
36.6,-2.1361957
36.61,-1.9833616
36.62,-1.5347463
36.63,-1.5787013
36.64,-0.85232
36.65,-0.95193055
36.66,-1.4051899
36.67,-2.1221886
36.68,-1.9271519
36.69,-1.5155598
36.7,-0.5826815
36.71,-1.5920937
36.72,-1.6662971
36.73,-3.6844626
36.74,-0.80728224
36.75,0.17657464
36.76,-2.3195733
36.77,-2.7642192
36.78,-1.2217166
36.79,-1.5442425
36.8,-0.80812531
36.81,-1.4454661
36.82,-3.3726373
36.83,-1.0428471
36.84,-1.3628995
36.85,-1.3297016
36.86,-1.5467744
36.87,-1.3964485
36.88,-0.24413734
36.89,-2.0915034
36.9,-1.0941362
36.91,-0.86421953
36.92,-0.8654991
36.93,-0.8215893
36.94,-1.9363975
36.95,-1.085559
36.96,-2.1474381
36.97,-1.1839843
36.98,-1.3848604
36.99,-1.5330573
37,-2.726924
37.01,-1.4811123
37.02,-0.73426517
37.03,-1.2584585
37.04,-1.7100299
37.05,-0.62770269
37.06,-1.8672983
37.07,-1.4670153
37.08,-1.2748384
37.09,-1.9063853
37.1,-1.6654849
37.11,-1.9674709
37.12,-2.0301138
37.13,-1.6515601
37.14,-1.829941
37.15,-2.302505
37.16,-1.328812
37.17,-1.8022579
37.18,-2.1003439
37.19,-1.7026945
37.2,-1.9234405
37.21,-1.8060343
37.22,-1.0554372
37.23,0.65542049
37.24,-1.5638603
37.25,-1.7742818
37.26,-1.2208828
37.27,-1.7303719
37.28,-1.43089
37.29,-1.8365453
37.3,-0.71823985
37.31,-2.9048109
37.32,-1.2637141
37.33,-2.0991306
37.34,-1.8239964
37.35,-1.4143098
37.36,-1.6476624
37.37,-1.2367753
37.38,-1.0870705
37.39,-1.3752889
37.4,-0.86395509
37.41,-1.6942775
37.42,-0.24838584
37.43,-0.8681865
37.44,-1.1297574
37.45,-1.7823135
37.46,-1.5480141
37.47,-1.860554
37.48,-1.4760542
37.49,-1.9448148
37.5,-1.8624622
37.51,0.59308986
37.52,0.49115664
37.53,-2.2086603
37.54,-1.9162287
37.55,-3.0261505
37.56,-2.4090462
37.57,-2.6035866
37.58,-1.709907
37.59,-2.2015962
37.6,-3.1183603
37.61,-1.839713
37.62,-2.3360364
37.63,-1.4385038
37.64,-2.1776497
37.65,-1.5136822
37.66,-0.8443254
37.67,-1.2808078
37.68,-0.67862368
37.69,-2.5079873
37.7,-2.2328864
37.71,-2.3346048
37.72,-2.8476541
37.73,-2.5241322
37.74,-2.8570546
37.75,-1.9501367
37.76,-2.721515
37.77,-1.7295844
37.78,-1.663506
37.79,-1.8681063
37.8,-2.0588873
37.81,-2.1826382
37.82,-2.7264577
37.83,-1.8112114
37.84,-2.6326052
37.85,-2.8231107
37.86,-1.5084426
37.87,-1.6881012
37.88,-1.7140427
37.89,-1.9624445
37.9,-2.0621797
37.91,-2.1426992
37.92,-2.1717297
37.93,-1.393205
37.94,-1.4836307
37.95,-1.303317
37.96,-0.83934783
37.97,-2.2855056
37.98,-0.33927353
37.99,-2.5445728
38,-2.2258713
38.01,-1.4070375
38.02,-1.6161091
38.03,-1.6429139
38.04,-3.0029493
38.05,-2.8664373
38.06,-1.9291446
38.07,-0.80941704
38.08,-1.4770239
38.09,-2.4873341
38.1,-1.2083121
38.11,-3.7027527
38.12,-1.3531898
38.13,-2.5450425
38.14,-0.78770345
38.15,-1.7562441
38.16,-0.99416088
38.17,-2.5319036
38.18,-1.2900874
38.19,-1.9595182
38.2,-1.6714346
38.21,-2.6093562
38.22,-3.7419838
38.23,-0.42552229
38.24,0.034571825
38.25,-3.6636243
38.26,-2.8476849
38.27,-1.6882534
38.28,-0.24373061
38.29,-0.79558229
38.3,-1.9162247
38.31,-1.7188078
38.32,-1.484809
38.33,0.38531007
38.34,-1.2073695
38.35,-0.91050375
38.36,-1.0113979
38.37,-1.6282415
38.38,-0.49128346
38.39,-0.71254736
38.4,-1.0221852
38.41,-0.91577436
38.42,-2.0643139
38.43,-1.8022069
38.44,-0.63749967
38.45,-4.0757275
38.46,-1.0905237
38.47,0.48733856
38.48,0.39647613
38.49,1.6975873
38.5,0.77831955
38.51,-1.9518076
38.52,-2.0288161
38.53,0.20468361
38.54,2.660597
38.55,-1.1065304
38.56,1.1223368
38.57,-1.5722341
38.58,-1.6083874
38.59,-0.7640599
38.6,-2.5370649
38.61,-1.5030202
38.62,0.9220087
38.63,0.15107405
38.64,-1.9633328
38.65,-1.4338332
38.66,-2.6364497
38.67,1.2057373
38.68,0.69188376
38.69,-1.9018996
38.7,-1.9278685
38.71,0.39248264
38.72,-1.9331338
38.73,-0.9007245
38.74,-0.84452435
38.75,-0.47261698
38.76,-2.7784386
38.77,-1.2636606
38.78,-1.5140582
38.79,-2.266076
38.8,-0.85949138
38.81,-2.6735774
38.82,-1.5717106
38.83,-2.6324876
38.84,-2.5033322
38.85,-1.3857119
38.86,-0.47096948
38.87,-1.6204531
38.88,-0.55667282
38.89,-1.1492968
38.9,-3.0028466
38.91,-1.7004329
38.92,-1.4634209
38.93,-2.4458534
38.94,-1.8048296
38.95,-2.726501
38.96,0.32145441
38.97,-1.6036379
38.98,-2.0572197
38.99,-1.6448613
39,-1.567968
39.01,-2.6221471
39.02,-1.7707078
39.03,-2.0908673
39.04,-1.5275394
39.05,1.2279941
39.06,-1.0959729
39.07,-1.3368517
39.08,-1.3643024
39.09,-1.2976213
39.1,-1.7909649
39.11,-2.3558918
39.12,-2.0446509
39.13,-2.6748496
39.14,0.12383925
39.15,-0.67749355
39.16,-0.002780355
39.17,-0.11168748
39.18,-2.4265357
39.19,-1.4244998
39.2,-3.5502172
39.21,-2.1763857
39.22,1.5514619
39.23,-0.45099375
39.24,-2.6743317
39.25,1.2581908
39.26,-0.8321296
39.27,-0.74593845
39.28,-1.0973851
39.29,-1.9331333
39.3,-2.577266
39.31,-2.2757743
39.32,0.033936272
39.33,-2.9498251
39.34,-0.7357498
39.35,-2.237833
39.36,-1.3500374
39.37,-2.2072568
39.38,-3.9515062
39.39,-1.3410159
39.4,-1.2046777
39.41,-2.7835076
39.42,-1.7121027
39.43,-3.521175
39.44,-1.1268579
39.45,-1.5029081
39.46,-1.6092543
39.47,-2.1238947
39.48,-1.5908767
39.49,-1.5998997
39.5,-1.2453702
39.51,-1.8373829
39.52,-1.0182875
39.53,-1.767079
39.54,-1.4020797
39.55,-0.78070776
39.56,-1.2693965
39.57,-1.3938987
39.58,-0.82344766
39.59,-1.5777395
39.6,-1.4208183
39.61,-0.9101972
39.62,-0.91380378
39.63,-1.255549
39.64,-1.5740171
39.65,-1.7001654
39.66,-0.9643012
39.67,-1.8374446
39.68,-1.1133267
39.69,-1.4229905
39.7,-1.4230079
39.71,-1.7262571
39.72,-1.2565621
39.73,-1.4265942
39.74,-1.2573302
39.75,-2.2929948
39.76,0.30756768
39.77,-4.0307091
39.78,-2.1377579
39.79,-1.8390784
39.8,-1.7938845
39.81,-1.6658227
39.82,-1.1066659
39.83,-0.76556048
39.84,0.36694553
39.85,-1.9262995
39.86,-2.3585644
39.87,-0.69678617
39.88,-1.7341452
39.89,-1.6663407
39.9,-1.2688824
39.91,-1.5026508
39.92,-2.114674
39.93,-1.3737053
39.94,-1.8016474
39.95,-1.6111015
39.96,-0.95879877
39.97,-1.0770063
39.98,-1.3912171
39.99,-2.2050307
40,-1.8420891
40.01,-1.7393427
40.02,-0.88041883
40.03,-0.9853415
40.04,-1.4486425
40.05,-2.7865887
40.06,-2.1125368
40.07,-1.5991814
40.08,-3.1526743
40.09,-0.83111331
40.1,-1.0683014
40.11,-2.7411538
40.12,-1.6982728
40.13,-1.3378716
40.14,-1.6220396
40.15,-1.7377965
40.16,-0.60542944
40.17,-0.63119385
40.18,-1.6766624
40.19,-0.89551435
40.2,-1.1026878
40.21,-1.2960875
40.22,-1.60228
40.23,-0.77288854
40.24,-1.5463123
40.25,-2.111186
40.26,-1.0323389
40.27,-3.4046347
40.28,-1.7231787
40.29,-1.8750789
40.3,-2.0360981
40.31,-2.2014129
40.32,-2.8918516
40.33,-1.7420339
40.34,-1.1648434
40.35,-2.5086151
40.36,-2.1290987
40.37,-2.0551288
40.38,-1.3640755
40.39,-1.5017624
40.4,-2.1507788
40.41,-3.1671006
40.42,-1.4981393
40.43,-1.7225259
40.44,-1.6518513
40.45,-2.0860729
40.46,-1.5046695
40.47,-1.3286439
40.48,-0.006133893
40.49,-0.33275275
40.5,-1.797477
40.51,-0.34194037
40.52,-2.8979783
40.53,-1.7991729
40.54,-1.7923239
40.55,-2.6087489
40.56,-1.6861748
40.57,-0.092218762
40.58,-2.7557841
40.59,-1.8563402
40.6,-1.5506986
40.61,-3.7441436
40.62,-3.0040794
40.63,-1.7771821
40.64,-2.2841138
40.65,-1.9190747
40.66,-1.9827127
40.67,-3.2579562
40.68,-1.0505825
40.69,-2.2497425
40.7,-1.4648699
40.71,-1.8353533
40.72,-2.0692792
40.73,-2.1136879
40.74,-1.9545384
40.75,-2.923218
40.76,-1.3207303
40.77,-1.3970845
40.78,-1.0422673
40.79,-1.5483037
40.8,-0.82857245
40.81,-2.1828418
40.82,-2.8792989
40.83,-2.3101903
40.84,-0.71480935
40.85,-3.2501982
40.86,-3.5356825
40.87,-2.453074
40.88,-2.5057642
40.89,-2.4902304
40.9,-1.9059123
40.91,-2.4265885
40.92,-2.5618334
40.93,-2.4598843
40.94,-1.7668938
40.95,-3.3148482
40.96,-0.23247306
40.97,-2.0730172
40.98,-3.0631571
40.99,-2.4887332
41,-1.957498
41.01,-1.0441523
41.02,-1.8400557
41.03,2.5162805
41.04,-2.5327613
41.05,-1.9312702
41.06,-2.2483865
41.07,-2.0761098
41.08,-0.11828326
41.09,-1.8750015
41.1,-1.7154337
41.11,-1.5040396
41.12,-1.866767
41.13,-0.95651404
41.14,-1.2432651
41.15,-2.1181735
41.16,-1.5861613
41.17,-0.84628331
41.18,-1.7524319
41.19,-1.4424296
41.2,-0.46265087
41.21,-2.4737133
41.22,-0.27204188
41.23,-1.0878839
41.24,-1.7838599
41.25,-2.2662908
41.26,-1.906637
41.27,-1.5133603
41.28,-2.8811154
41.29,-3.5095404
41.3,-2.4052457
41.31,-1.8844484
41.32,-0.78167894
41.33,-2.7784765
41.34,-2.8191508
41.35,-2.1162374
41.36,-2.2933022
41.37,-1.6625684
41.38,-1.8204597
41.39,-2.3003345
41.4,-2.3390133
41.41,-0.92244827
41.42,-1.6315657
41.43,-0.78229977
41.44,-0.61458334
41.45,-1.3454909
41.46,-1.1469467
41.47,-1.2144484
41.48,-0.86101749
41.49,-1.2565463
41.5,-1.1913639
41.51,-1.5227928
41.52,-2.0703703
41.53,-1.8096562
41.54,-2.6855486
41.55,-2.1252215
41.56,-1.3162917
41.57,-2.8387298
41.58,-1.7687623
41.59,-2.0888864
41.6,-1.779942
41.61,-1.9767589
41.62,-2.4600909
41.63,-2.5915422
41.64,-1.5005918
41.65,-1.4340129
41.66,-2.9205781
41.67,-2.2680168
41.68,-2.1029713
41.69,-1.2857745
41.7,-0.96190843
41.71,-2.0907056
41.72,-2.0186804
41.73,-3.141951
41.74,-1.1049258
41.75,-1.7548173
41.76,-1.8223474
41.77,-2.5962592
41.78,-3.6205204
41.79,-2.1767472
41.8,-1.3617253
41.81,-1.0971632
41.82,-1.647329
41.83,-2.0707939
41.84,-1.6427538
41.85,-2.3849539
41.86,-2.2486231
41.87,-1.7353985
41.88,-1.6505937
41.89,-1.7866071
41.9,-1.7603983
41.91,-1.5948753
41.92,-2.0664796
41.93,-1.1236403
41.94,-1.6363418
41.95,-1.4081007
41.96,-2.0454091
41.97,-1.3439903
41.98,-1.6094731
41.99,-1.6556042
42,-1.1473122
42.01,-1.5458528
42.02,-2.1420487
42.03,-1.0490345
42.04,-1.187826
42.05,-1.0648344
42.06,-0.70592228
42.07,-1.0319462
42.08,-1.423839
42.09,-1.3763282
42.1,-1.5587835
42.11,-1.0382125
42.12,-1.6932622
42.13,-0.24535844
42.14,-1.5634724
42.15,-1.7526663
42.16,-0.56031711
42.17,-0.81364035
42.18,-0.88001
42.19,-1.0075224
42.2,-1.4568362
42.21,-1.7426008
42.22,-1.4954007
42.23,-0.98497852
42.24,-1.3718729
42.25,-1.6268734
42.26,-1.1618969
42.27,-1.0984089
42.28,-0.73892728
42.29,-0.98235028
42.3,-1.3284763
42.31,-0.99444648
42.32,-0.48253155
42.33,-1.7621057
42.34,-0.69931034
42.35,-0.6269917
42.36,-2.8840981
42.37,-1.0342365
42.38,-1.8485492
42.39,-0.69184128
42.4,-1.7306504
42.41,-0.90767388
42.42,-1.6703719
42.43,-1.9896627
42.44,-0.57836964
42.45,-0.67751603
42.46,-0.096544851
42.47,-1.1088417
42.48,-1.0555217
42.49,-1.9011865
42.5,-0.72524234
42.51,-0.29558871
42.52,-1.0250935
42.53,-1.3623135
42.54,0.024876983
42.55,-1.8233542
42.56,-1.2616939
42.57,-1.8748586
42.58,-1.4633166
42.59,-0.72577415
42.6,-0.91388805
42.61,-0.77669513
42.62,-1.4233681
42.63,-0.18385285
42.64,-0.49019028
42.65,-1.0308895
42.66,-1.8281312
42.67,-0.97568032
42.68,-1.2801669
42.69,0.33871329
42.7,-1.0285069
42.71,-1.4189648
42.72,-0.91589383
42.73,-1.4732894
42.74,-1.376598
42.75,-1.5308349
42.76,-0.92234528
42.77,-0.85044607
42.78,-0.89691032
42.79,-0.9564945
42.8,-1.1791821
42.81,-0.89519364
42.82,-2.1532078
42.83,-1.5704933
42.84,-2.7128621
42.85,-0.16961986
42.86,-1.5809605
42.87,-0.69543343
42.88,-1.3324695
42.89,-0.33537552
42.9,-0.60018872
42.91,-1.7083099
42.92,-1.0264355
42.93,-2.3353617
42.94,-0.023169177
42.95,-1.6701393
42.96,-1.0945756
42.97,-2.4715647
42.98,-2.0709294
42.99,-1.0308569
43,-0.29049972
43.01,-0.88480178
43.02,-0.63129183
43.03,-0.74708822
43.04,-0.70870751
43.05,-0.71686235
43.06,-0.021721322
43.07,-1.938822
43.08,-0.39655609
43.09,-1.0746622
43.1,-1.4583391
43.11,-0.063080908
43.12,-0.50523715
43.13,-0.14277438
43.14,-1.4212595
43.15,-1.1589324
43.16,-1.0279078
43.17,-0.41141574
43.18,-1.0865544
43.19,-1.5746351
43.2,-0.55088876
43.21,-0.32965525
43.22,-1.4507607
43.23,-0.97373628
43.24,0.37758422
43.25,-1.0008013
43.26,-2.1171935
43.27,-1.2710905
43.28,-0.39524822
43.29,-1.7347165
43.3,-1.6124029
43.31,-0.17941669
43.32,-1.0687625
43.33,-0.72569043
43.34,-2.4647
43.35,-1.4810781
43.36,-1.5490802
43.37,-0.84482817
43.38,-0.85994944
43.39,-1.4370058
43.4,-0.81176019
43.41,0.22176212
43.42,-0.31295826
43.43,-0.59961816
43.44,-1.0720848
43.45,-0.74638262
43.46,-0.85976425
43.47,-1.1814733
43.48,-0.79022793
43.49,-1.3867073
43.5,-1.6904362
43.51,-1.086871
43.52,-1.3871238
43.53,-0.63141108
43.54,-1.6422435
43.55,-1.5905221
43.56,-1.6988597
43.57,-1.9100919
43.58,-1.2580873
43.59,-2.5742629
43.6,0.14836265
43.61,-1.7756372
43.62,-1.5165032
43.63,-0.880404
43.64,-1.6061561
43.65,-2.1250931
43.66,-2.8915558
43.67,-0.48356802
43.68,-0.14411993
43.69,-0.97079442
43.7,-1.4393545
43.71,-0.76203434
43.72,-0.3321627
43.73,-0.73233157
43.74,-1.9168581
43.75,-1.5055286
43.76,-1.2484318
43.77,-3.7220048
43.78,-0.30409644
43.79,-1.5073257
43.8,-1.9776574
43.81,-0.74962344
43.82,-1.1076713
43.83,-0.90237636
43.84,-2.4298551
43.85,-2.0684258
43.86,-0.93178559
43.87,-0.83232201
43.88,-1.7441291
43.89,-1.5300386
43.9,-1.4402465
43.91,-1.085749
43.92,-1.9262949
43.93,-0.98719733
43.94,-1.8566327
43.95,-1.2797429
43.96,-1.8646752
43.97,-1.4076611
43.98,-1.3930258
43.99,-1.5921579
44,-0.34628613
44.01,-1.2147848
44.02,-1.4026389
44.03,-1.6280578
44.04,-1.4141726
44.05,-1.7761381
44.06,-2.2062898
44.07,-2.3258093
44.08,-1.6943736
44.09,-1.7115256
44.1,-1.0039332
44.11,-0.82034256
44.12,-2.298493
44.13,-2.4708541
44.14,-1.5692354
44.15,-2.4950528
44.16,-1.172987
44.17,-0.74345598
44.18,-2.2796864
44.19,-1.70305
44.2,-2.3387899
44.21,-1.9237793
44.22,-3.6384007
44.23,-1.1528913
44.24,-1.9608714
44.25,-1.8488834
44.26,-2.0752473
44.27,-1.8551992
44.28,-2.6748171
44.29,-2.1181557
44.3,-1.4515641
44.31,-1.2521322
44.32,-2.6371436
44.33,-1.7135608
44.34,-2.35072
44.35,-2.4656264
44.36,-2.4661873
44.37,-1.5307384
44.38,-1.0188828
44.39,-0.9111361
44.4,-1.6819288
44.41,-0.82819821
44.42,-1.6310581
44.43,-1.3499931
44.44,-0.81580798
44.45,-2.2406935
44.46,-2.198701
44.47,-2.174795
44.48,-1.0085039
44.49,-0.73794912
44.5,-3.0863089
44.51,-1.6210676
44.52,-2.2543666
44.53,-2.1441475
44.54,-1.1490338
44.55,-1.7229889
44.56,-2.2815205
44.57,-1.3694299
44.58,-1.8530531
44.59,-1.6380069
44.6,-2.0383199
44.61,-2.099963
44.62,-1.2292313
44.63,-2.0913309
44.64,-1.4537454
44.65,-0.71511671
44.66,-0.31166457
44.67,-2.2962948
44.68,-1.795239
44.69,-2.2053144
44.7,-2.4728244
44.71,-1.6919687
44.72,-1.7164572
44.73,-1.2472709
44.74,-1.2148964
44.75,-2.0109785
44.76,-1.4708122
44.77,-2.6507184
44.78,-2.1792706
44.79,-2.8746585
44.8,-1.9152939
44.81,-2.2006276
44.82,-0.38847055
44.83,-1.3548016
44.84,-2.1398293
44.85,-2.3380174
44.86,-1.5766191
44.87,-2.1859164
44.88,-2.7329403
44.89,-2.4254687
44.9,-2.5454792
44.91,-2.8910621
44.92,-2.4139545
44.93,-2.6428473
44.94,-0.50742662
44.95,-1.8736114
44.96,-1.1667513
44.97,-2.0199541
44.98,-2.2602599
44.99,-2.7745639
45,-2.2686718
45.01,-1.9155578
45.02,-2.1440369
45.03,-1.9759886
45.04,-2.1324911
45.05,-1.4898968
45.06,-1.5939241
45.07,-1.7980215
45.08,-2.4070247
45.09,-3.5073663
45.1,-2.6802146
45.11,-2.3426934
45.12,-2.3034158
45.13,-1.912042
45.14,-2.8882251
45.15,-1.8942819
45.16,-1.792011
45.17,-1.405046
45.18,-2.0039077
45.19,-2.3690184
45.2,-2.8266182
45.21,-2.0864426
45.22,-1.6111587
45.23,-1.6226513
45.24,-2.2159758
45.25,-1.8486679
45.26,-0.24321872
45.27,-2.9053212
45.28,-2.3456744
45.29,-2.519477
45.3,-2.3993749
45.31,-0.99205243
45.32,-0.5862651
45.33,-0.343742
45.34,0.59720165
45.35,0.18008104
45.36,0.82189485
45.37,-0.23952487
45.38,0.70854933
45.39,0.35686581
45.4,0.9232215
45.41,0.16474537
45.42,-0.27353189
45.43,0.17231961
45.44,-0.56213034
45.45,-0.31688877
45.46,0.61559731
45.47,-0.7570707
45.48,-0.42178575
45.49,0.90924167
45.5,0.59610962
45.51,-0.18976403
45.52,0.90073812
45.53,0.91740338
45.54,-0.054762227
45.55,0.39741853
45.56,0.31418685
45.57,0.78650689
45.58,0.43567809
45.59,-0.62078454
45.6,0.57645384
45.61,-0.16403289
45.62,0.24623668
45.63,0.81103532
45.64,0.093375424
45.65,0.79767764
45.66,0.18496871
45.67,-0.23850315
45.68,0.80290988
45.69,0.46340569
45.7,0.18951022
45.71,0.54254268
45.72,0.75190118
45.73,0.56216264
45.74,1.5005057
45.75,0.24823216
45.76,0.53352474
45.77,-0.32102527
45.78,0.49455794
45.79,0.72946068
45.8,-0.029459798
45.81,0.5628812
45.82,1.4937617
45.83,1.3211152
45.84,0.93654219
45.85,1.505447
45.86,0.22034036
45.87,0.77535564
45.88,1.242007
45.89,0.22666667
45.9,0.82058328
45.91,0.69667211
45.92,0.10973024
45.93,0.69202099
45.94,0.71101335
45.95,0.86852589
45.96,1.1041975
45.97,0.83171111
45.98,-0.26303981
45.99,0.21765541
46,-0.72265087
46.01,1.269994
46.02,0.27094713
46.03,1.0319289
46.04,0.34805204
46.05,0.69484367
46.06,1.0432632
46.07,1.2705544
46.08,1.4060004
46.09,0.29822374
46.1,1.4460595
46.11,0.84861779
46.12,1.2086858
46.13,1.1221507
46.14,0.34861476
46.15,1.2374072
46.16,0.26822238
46.17,1.5819624
46.18,-0.52557058
46.19,0.2334114
46.2,0.047925054
46.21,0.39006857
46.22,-0.14741641
46.23,0.40548669
46.24,0.79087645
46.25,-0.50953799
46.26,-1.2798194
46.27,0.16931386
46.28,-0.46439448
46.29,-0.055801951
46.3,-0.58295464
46.31,-0.073565464
46.32,0.043505301
46.33,0.17621492
46.34,0.2613856
46.35,-0.24114376
46.36,0.20952503
46.37,0.44522676
46.38,-0.5780137
46.39,-0.13112955
46.4,-0.049964185
46.41,0.26822851
46.42,1.2437124
46.43,0.39025497
46.44,-0.87725344
46.45,0.50342638
46.46,-0.3935404
46.47,-0.61616408
46.48,0.61649073
46.49,0.34200692
46.5,-0.019645118
46.51,-0.75380803
46.52,-2.3964673
46.53,-0.57396924
46.54,-0.10421992
46.55,0.15404643
46.56,-0.41396121
46.57,1.4112493
46.58,0.17160075
46.59,-0.29607888
46.6,1.0478668
46.61,0.80531628
46.62,-0.34003571
46.63,0.32001071
46.64,0.4479495
46.65,-0.049152308
46.66,0.9003818
46.67,0.10325311
46.68,0.3068506
46.69,0.74381203
46.7,-0.57323165
46.71,-0.74586919
46.72,-0.56725497
46.73,-0.58746815
46.74,0.14783186
46.75,-0.25949944
46.76,-0.001752386
46.77,-0.99273862
46.78,0.80309201
46.79,0.45971568
46.8,-0.82963754
46.81,0.74991715
46.82,-0.94251771
46.83,0.24293387
46.84,0.23090843
46.85,0.12079691
46.86,0.30467231
46.87,-0.22009516
46.88,0.56687667
46.89,0.71691979
46.9,-0.62038326
46.91,-0.79992188
46.92,-1.6655081
46.93,-1.3055525
46.94,-1.3473823
46.95,-0.49028272
46.96,-0.9138909
46.97,-1.5464526
46.98,-2.258127
46.99,-2.5498262
47,-1.3062737
47.01,-1.35745
47.02,-2.3383123
47.03,-2.6815309
47.04,-2.0124845
47.05,-2.701499
47.06,-2.270394
47.07,-1.9587297
47.08,-2.2943646
47.09,-1.6538232
47.1,-2.3039821
47.11,-1.760688
47.12,-1.8290361
47.13,-2.4561555
47.14,-1.7093899
47.15,-1.5275832
47.16,-2.2215496
47.17,-0.89082419
47.18,-0.87088506
47.19,-0.99551736
47.2,-2.3574498
47.21,-2.3288684
47.22,-2.3614459
47.23,-2.5174287
47.24,-2.2666658
47.25,-2.4782021
47.26,-1.6593722
47.27,-0.4474361
47.28,-2.5215786
47.29,-0.83412796
47.3,-2.1142987
47.31,-1.8250943
47.32,-4.1771212
47.33,-1.9657098
47.34,-1.514572
47.35,-1.3486
47.36,-1.9955751
47.37,-2.6195709
47.38,-1.8876659
47.39,-3.1531259
47.4,-2.0916041
47.41,-1.0584906
47.42,-2.751321
47.43,-2.0888995
47.44,-2.9236615
47.45,-2.1369719
47.46,-2.8099643
47.47,-2.5718157
47.48,-2.8169125
47.49,-2.3886159
47.5,-1.7412036
47.51,-2.101233
47.52,-1.7451641
47.53,-2.2171549
47.54,-1.9620706
47.55,-1.9035681
47.56,-1.3553991
47.57,-2.8305369
47.58,-2.5784362
47.59,-2.2287681
47.6,-0.32626048
47.61,-1.7953742
47.62,-2.2344016
47.63,-2.0963312
47.64,-2.323888
47.65,-2.1599552
47.66,-2.8588978
47.67,-1.6780008
47.68,-1.3147017
47.69,0.52644611
47.7,-1.7364688
47.71,-2.1236393
47.72,-2.6506434
47.73,-2.8936431
47.74,-2.5138222
47.75,-2.2323598
47.76,-2.0959777
47.77,-1.8956704
47.78,-2.3875066
47.79,-2.1139362
47.8,-0.43777351
47.81,0.46104568
47.82,0.97558763
47.83,0.91450141
47.84,-0.19240845
47.85,0.262854
47.86,1.1394659
47.87,-0.28775606
47.88,1.2349521
47.89,0.40413949
47.9,0.69161776
47.91,1.3593952
47.92,1.0790901
47.93,0.1209922
47.94,0.98841377
47.95,0.18440911
47.96,0.46274426
47.97,1.1013887
47.98,0.88634296
47.99,1.2953143
48,-0.17167826
48.01,0.084714812
48.02,1.4061911
48.03,1.0025282
48.04,0.88884831
48.05,-0.035403736
48.06,-0.041900803
48.07,-0.11579216
48.08,-0.27854555
48.09,0.69271324
48.1,-0.104993
48.11,-0.19545414
48.12,1.1960495
48.13,-0.52851404
48.14,0.59982851
48.15,0.021792141
48.16,0.26808953
48.17,-0.2970167
48.18,1.2195922
48.19,-0.39833604
48.2,0.55628389
48.21,0.90616933
48.22,0.81257009
48.23,1.0983486
48.24,0.99577479
48.25,0.78261582
48.26,0.72708467
48.27,1.1557914
48.28,-0.13396686
48.29,-2.8951978
48.3,0.58701259
48.31,0.21802391
48.32,0.87651767
48.33,-2.184149
48.34,-2.0906756
48.35,-3.4584319
48.36,0.72076235
48.37,-1.8007662
48.38,-0.44857455
48.39,-0.21006656
48.4,-0.18337937
48.41,-3.7937014
48.42,-1.8140945
48.43,-2.1190664
48.44,-0.49490189
48.45,-1.2488007
48.46,-1.0662088
48.47,-1.5357304
48.48,0.18613326
48.49,-1.031351
48.5,-1.1615981
48.51,-0.96115609
48.52,-0.57321312
48.53,-1.3191891
48.54,-1.4950758
48.55,-1.2022468
48.56,-0.76466397
48.57,-1.1342859
48.58,-1.6926376
48.59,-2.9665857
48.6,-0.37149475
48.61,0.000644654
48.62,-3.0752806
48.63,-1.1384312
48.64,-1.3606409
48.65,-0.37880042
48.66,-0.48278581
48.67,-0.93345064
48.68,-0.85725686
48.69,-0.1087816
48.7,-0.73989259
48.71,-0.96325525
48.72,-1.195676
48.73,-1.1000234
48.74,-1.0488067
48.75,-1.4860347
48.76,-1.3936707
48.77,-0.66754354
48.78,-0.70603801
48.79,-2.0963183
48.8,-0.76506114
48.81,-0.82121153
48.82,-0.81366304
48.83,-0.37310996
48.84,0.36706347
48.85,0.49039082
48.86,-0.43315819
48.87,-1.3742651
48.88,-1.1580388
48.89,-1.2899026
48.9,-0.74037815
48.91,-1.5197318
48.92,-1.766696
48.93,-1.5501817
48.94,-1.8940224
48.95,-1.2842223
48.96,-1.6691074
48.97,-1.174278
48.98,-1.4056478
48.99,-1.6819191
49,-1.9363902
49.01,-1.2499686
49.02,-1.0777954
49.03,-0.53342325
49.04,-1.7598332
49.05,-1.1865571
49.06,-0.90724637
49.07,-0.42066654
49.08,-1.4239855
49.09,-2.1028418
49.1,-1.7210554
49.11,-1.7420883
49.12,-2.3179756
49.13,-0.78077197
49.14,-1.3259741
49.15,-2.1217584
49.16,-0.41243219
49.17,-2.1574807
49.18,-2.2547512
49.19,-2.7655745
49.2,-2.048639
49.21,-2.5286012
49.22,-1.8511569
49.23,-1.6512351
49.24,-3.3190519
49.25,-1.8304276
49.26,-2.0473539
49.27,-1.9382056
49.28,-2.0407394
49.29,-1.8015151
49.3,-1.532663
49.31,-0.754524
49.32,-2.9663102
49.33,-0.25188028
49.34,-1.9161383
49.35,-1.8710579
49.36,-2.5726099
49.37,-1.5949972
49.38,-2.5184785
49.39,-2.5863853
49.4,-1.6622143
49.41,-2.7116719
49.42,-2.0257971
49.43,-1.4272981
49.44,-2.85302
49.45,0.086888833
49.46,-2.406176
49.47,-1.7659084
49.48,-1.4809334
49.49,-2.4259451
49.5,-1.36582
49.51,-1.5123096
49.52,-2.1961093
49.53,-1.2603447
49.54,-1.47126
49.55,-1.3046901
49.56,-1.1568352
49.57,-0.97482721
49.58,-1.2524376
49.59,-0.078292504
49.6,-0.86855749
49.61,-0.98285901
49.62,-0.46805998
49.63,-0.45642004
49.64,-0.80844772
49.65,-1.6139316
49.66,-0.27913911
49.67,-1.7769974
49.68,-1.1451628
49.69,-0.90569357
49.7,-1.7883537
49.71,-1.5905712
49.72,-2.0283696
49.73,-1.465356
49.74,-1.8635275
49.75,-1.4806684
49.76,-2.3477066
49.77,-0.97178337
49.78,-0.28274397
49.79,-0.94683423
49.8,-1.4165069
49.81,0.089655636
49.82,-0.53472899
49.83,-1.1179277
49.84,-2.0221865
49.85,-0.6487216
49.86,-2.1336344
49.87,-0.48861143
49.88,-1.5491902
49.89,-2.794928
49.9,-1.8333404
49.91,-1.6890533
49.92,-2.0599703
49.93,-1.9862709
49.94,-0.99094811
49.95,-3.4050738
49.96,-2.8676281
49.97,-2.8397786
49.98,-2.5202247
