0.01,-4.3497511
0.02,-4.5065789
0.03,-4.5840949
0.04,-4.3188235
0.05,-3.9732924
0.06,-4.4082752
0.07,-4.5896691
0.08,-4.5074621
0.09,-4.7046566
0.1,-2.8536712
0.11,-4.5594833
0.12,-4.3262444
0.13,-4.3424462
0.14,-2.0588691
0.15,-4.384961
0.16,-4.2181222
0.17,-3.8986873
0.18,-3.8751634
0.19,-3.9749087
0.2,-1.2864359
0.21,-4.2282265
0.22,-3.3785997
0.23,-4.1693744
0.24,-3.5106386
0.25,-4.2827374
0.26,-2.8466725
0.27,-3.9477131
0.28,-2.0132361
0.29,-4.2264821
0.3,-4.0645668
0.31,-0.3727249
0.32,-1.4005536
0.33,-4.2473509
0.34,-2.4230953
0.35,-3.2562893
0.36,-4.6180827
0.37,-2.8930469
0.38,-3.5100354
0.39,-4.530522
0.4,-4.2293972
0.41,-2.9888945
0.42,-3.8884577
0.43,-3.1334115
0.44,-4.941625
0.45,-4.5457704
0.46,-3.6053822
0.47,-4.2326604
0.48,-4.6219562
0.49,-3.4192147
0.5,-3.3096623
0.51,-4.681
0.52,-4.3905039
0.53,-4.170565
0.54,-3.7655611
0.55,-4.3052777
0.56,-3.838038
0.57,-4.4432079
0.58,-4.1467223
0.59,-4.3527538
0.6,-4.2359019
0.61,-3.3544479
0.62,-4.6731428
0.63,-4.3576917
0.64,-5.0585556
0.65,-4.5238994
0.66,-3.6596592
0.67,-4.3931018
0.68,-3.6262905
0.69,-3.9718354
0.7,-4.4530761
0.71,-3.5733069
0.72,-4.468704
0.73,-2.8176618
0.74,-2.8361512
0.75,-4.636199
0.76,-3.0169927
0.77,-3.0071891
0.78,-4.4350776
0.79,-4.3988257
0.8,-4.9466324
0.81,-3.3253855
0.82,-3.9215402
0.83,-4.0145795
0.84,-3.7213653
0.85,-2.4543811
0.86,-3.7616875
0.87,-4.6256799
0.88,-4.1000354
0.89,-4.5612531
0.9,-4.2989502
0.91,-4.3486107
0.92,-2.2616833
0.93,-4.3552855
0.94,-4.1829218
0.95,-3.998711
0.96,-3.6584573
0.97,-4.4406234
0.98,-2.7744605
0.99,-3.8776433
1,-4.2245973
1.01,-4.7460683
1.02,-4.4468196
1.03,-3.9561864
1.04,-4.5017385
1.05,-4.8724673
1.06,-4.2890852
1.07,-3.8996263
1.08,-3.9555691
1.09,-4.7755281
1.1,-4.0024156
1.11,-4.9003468
1.12,-5.0607743
1.13,-4.6031407
1.14,-4.3054731
1.15,-4.6825033
1.16,-2.9788502
1.17,-2.9527452
1.18,-2.0207301
1.19,-4.5374767
1.2,-4.1343763
1.21,-5.0567362
1.22,-1.4632548
1.23,-4.5263968
1.24,-4.214627
1.25,-2.9852164
1.26,-4.4199041
1.27,-4.3616932
1.28,-4.4047218
1.29,-3.0425257
1.3,-4.3164448
1.31,-2.50329
1.32,-3.6594716
1.33,-3.9753085
1.34,-4.4974587
1.35,-4.0056921
1.36,-4.2699354
1.37,-3.3795527
1.38,-4.5935402
1.39,-2.6394317
1.4,-3.0250585
1.41,-4.6028185
1.42,-4.4763645
1.43,-3.4061043
1.44,-4.44321
1.45,-3.5563431
1.46,-4.1295203
1.47,-3.6222767
1.48,-3.3705296
1.49,-4.5346976
1.5,-4.2548047
1.51,-2.788717
1.52,-4.4725059
1.53,-4.2504255
1.54,-4.5993666
1.55,-4.3869483
1.56,-2.8829011
1.57,-3.9910251
1.58,-4.7008633
1.59,-4.0328949
1.6,-4.2827144
1.61,-4.465354
1.62,-4.3086386
1.63,-3.9934167
1.64,-3.7257048
1.65,-3.6756853
1.66,-4.0412007
1.67,-4.2344632
1.68,-4.6117152
1.69,-4.4643606
1.7,-3.0528656
1.71,-4.0888284
1.72,-3.2880717
1.73,-4.2169369
1.74,-4.1032203
1.75,-3.3456046
1.76,-4.7045636
1.77,-3.8353443
1.78,-4.3537706
1.79,-5.0099138
1.8,-4.2624905
1.81,-4.2805365
1.82,-3.1809067
1.83,-3.6064891
1.84,-4.2270198
1.85,-3.5757981
1.86,-4.5190457
1.87,-4.3376817
1.88,-3.6985959
1.89,-3.2897478
1.9,-3.9577832
1.91,-3.8877375
1.92,-1.8286987
1.93,-4.373803
1.94,-4.3521499
1.95,-4.0153742
1.96,-4.3864657
1.97,-2.7886108
1.98,-4.8674039
1.99,-4.1292885
2,-4.3498694
2.01,-4.4881596
2.02,-2.9871087
2.03,-4.3276933
2.04,-4.175852
2.05,-4.3742827
2.06,-4.1026971
2.07,-4.6015685
2.08,-3.8836302
2.09,-2.5525474
2.1,-4.2400223
2.11,-4.6836554
2.12,-4.358644
2.13,-4.1902669
2.14,-3.9638857
2.15,-3.8814057
2.16,-3.5114902
2.17,-3.7999193
2.18,-4.4254032
2.19,-4.4203639
2.2,-2.9398912
2.21,-4.3942541
2.22,-4.1983337
2.23,-4.5615473
2.24,-4.2770873
2.25,-4.2148297
2.26,-4.1028768
2.27,-4.2215662
2.28,-4.4804406
2.29,-2.7562986
2.3,-4.3276995
2.31,-4.5801772
2.32,-4.3961021
2.33,-2.9274092
2.34,-4.7026004
2.35,-3.3856619
2.36,-3.5987186
2.37,-4.730997
2.38,-3.8586636
2.39,-4.4802127
2.4,-4.4078868
2.41,-4.3891793
2.42,-3.803962
2.43,-4.4033962
2.44,-2.820353
2.45,-3.9055688
2.46,-4.0917426
2.47,-3.9683693
2.48,-4.1809692
2.49,-3.8318442
2.5,-4.1712892
2.51,-4.6260688
2.52,-4.2057911
2.53,-4.6590411
2.54,-3.8344244
2.55,-4.2170619
2.56,-4.2817411
2.57,-2.7636675
2.58,-4.1976707
2.59,-4.1395073
2.6,-4.3173232
2.61,-4.4586387
2.62,-4.3765656
2.63,-4.1127153
2.64,-4.6015272
2.65,-3.0776239
2.66,-3.8609486
2.67,-4.2225412
2.68,-4.1135612
2.69,-4.3309668
2.7,-2.1473246
2.71,-3.8337496
2.72,-3.7367837
2.73,-4.636541
2.74,-4.4552014
2.75,-4.3909637
2.76,-3.1908371
2.77,-3.8505366
2.78,-3.3909951
2.79,-4.3934343
2.8,-1.5993281
2.81,-3.2714982
2.82,-4.7337286
2.83,-3.5166653
2.84,-5.0024694
2.85,-2.9883076
2.86,-4.3063124
2.87,-4.6700723
2.88,-1.7343159
2.89,-4.5848154
2.9,-3.7675931
2.91,-3.2095621
2.92,-3.3507061
2.93,-1.6050845
2.94,-0.63597815
2.95,-1.4156135
2.96,-1.3965429
2.97,-0.62797378
2.98,-2.2199991
2.99,-2.9035809
3,-2.7825272
3.01,0.21381208
3.02,-2.8885771
3.03,-1.8954179
3.04,-2.3623907
3.05,-2.6077708
3.06,-2.4949837
3.07,-2.2751287
3.08,-2.95628
3.09,-1.8787144
3.1,-2.5890477
3.11,-2.4211827
3.12,-2.1436405
3.13,-1.922171
3.14,-2.2245762
3.15,-1.1618591
3.16,-1.5851171
3.17,-2.3319692
3.18,-1.9075847
3.19,-1.1320251
3.2,-1.8532843
3.21,-2.7457884
3.22,-2.8752898
3.23,-1.6873751
3.24,-2.4398841
3.25,0.70786405
3.26,-2.3167521
3.27,-2.9640205
3.28,0.00871077
3.29,-2.1918003
3.3,-2.0011479
3.31,-2.494664
3.32,-1.5926913
3.33,-1.9022033
3.34,-3.186748
3.35,-1.0643913
3.36,-1.7648128
3.37,-1.9716599
3.38,-3.176228
3.39,-1.7496506
3.4,-3.0312269
3.41,-2.5157778
3.42,-2.2953263
3.43,-0.044627436
3.44,-1.0972249
3.45,-1.4490416
3.46,-1.3814298
3.47,-2.2630139
3.48,-1.9864926
3.49,-3.1254056
3.5,-2.2489319
3.51,-1.2991839
3.52,-2.6855688
3.53,-1.5083468
3.54,-3.1935256
3.55,-2.223199
3.56,-0.32920829
3.57,1.3334961
3.58,-3.1723561
3.59,-2.7602585
3.6,-1.6005544
3.61,-2.9693004
3.62,-2.1799202
3.63,-1.5293737
3.64,-1.9758771
3.65,0.21678822
3.66,-1.9179958
3.67,-2.9969881
3.68,-1.6993425
3.69,-1.6970188
3.7,-2.0590807
3.71,-0.93404218
3.72,-3.3094013
3.73,-2.1617187
3.74,-2.7345512
3.75,-1.6585458
3.76,-0.73214773
3.77,-2.7230482
3.78,-1.3643377
3.79,-2.2850104
3.8,-2.5419049
3.81,-0.67773037
3.82,-0.69508843
3.83,-2.1966563
3.84,-2.2419345
3.85,-1.1735649
3.86,-3.3719756
3.87,-2.9547865
3.88,-2.6443927
3.89,-0.84277538
3.9,-1.795227
3.91,-1.1240797
3.92,-2.135605
3.93,-2.5582381
3.94,-3.2721855
3.95,-2.3442643
3.96,-1.640794
3.97,-3.1225867
3.98,-2.6279342
3.99,-2.9101195
4,-2.7080856
4.01,-1.6664726
4.02,-0.43093903
4.03,-1.6647925
4.04,-1.4255904
4.05,-0.30049398
4.06,-2.6329394
4.07,-2.1802035
4.08,-3.4331371
4.09,-3.330188
4.1,0.35950506
4.11,-1.7711515
4.12,0.45535166
4.13,-2.6523458
4.14,-3.2930313
4.15,-2.2714362
4.16,-3.0341005
4.17,-2.9358537
4.18,-2.7245635
4.19,-1.5927683
4.2,-0.49906226
4.21,-2.9768169
4.22,-3.110479
4.23,-1.5548427
4.24,-0.58035785
4.25,-2.9078209
4.26,-1.9938865
4.27,-0.63014694
4.28,-2.1714777
4.29,-3.2025259
4.3,-1.3859214
4.31,-2.7326686
4.32,-1.8176351
4.33,-1.7849785
4.34,-2.0898321
4.35,-0.75115828
4.36,-0.45091597
4.37,-2.559749
4.38,-2.5733439
4.39,-3.3878477
4.4,-2.982942
4.41,-1.0021706
4.42,-1.8491645
4.43,-2.4386728
4.44,0.15699726
4.45,-2.4875734
4.46,-0.57787886
4.47,-0.29660549
4.48,-2.3815916
4.49,-2.8052499
4.5,-1.3713957
4.51,-2.6375165
4.52,-0.44106089
4.53,-0.23668763
4.54,-1.7070946
4.55,0.12416439
4.56,-2.5695939
4.57,-1.6663062
4.58,0.52314418
4.59,1.4230061
4.6,-2.7328955
4.61,-0.12525367
4.62,-2.117882
4.63,-2.1999623
4.64,-2.592205
4.65,-1.8308975
4.66,-0.176964
4.67,-2.0783144
4.68,-2.235202
4.69,-1.0494309
4.7,0.30210519
4.71,-1.7660436
4.72,-2.6549717
4.73,-1.376163
4.74,-1.5513857
4.75,-1.844683
4.76,-1.9146224
4.77,-1.4951759
4.78,0.61821839
4.79,-1.3640456
4.8,-3.2556778
4.81,-1.918178
4.82,-2.6702616
4.83,-2.2146748
4.84,-3.9048771
4.85,-1.4471155
4.86,-2.119781
4.87,-1.4719205
4.88,-2.8563209
4.89,-2.3649421
4.9,-2.268892
4.91,-2.4068289
4.92,-3.9753615
4.93,-2.1629093
4.94,-0.79729743
4.95,-2.8762145
4.96,-3.1701118
4.97,-3.3423924
4.98,-2.662829
4.99,-3.5985989
5,-3.5586694
5.01,-4.1410068
5.02,-4.2511874
5.03,-2.806989
5.04,-3.6340397
5.05,-4.3133515
5.06,-1.9398986
5.07,-3.7886491
5.08,-4.6570401
5.09,-4.4137446
5.1,-2.9051944
5.11,-4.1770493
5.12,-4.1424271
5.13,-4.4052391
5.14,-4.738661
5.15,-4.1211646
5.16,-4.6932184
5.17,-4.5283017
5.18,-4.5500725
5.19,-3.1896231
5.2,-2.6354304
5.21,-3.9745936
5.22,-4.5326232
5.23,-4.4468968
5.24,-4.0559476
5.25,-4.4447375
5.26,-3.5210069
5.27,-3.9658831
5.28,-3.6480437
5.29,-4.1737433
5.3,-4.5073871
5.31,-3.7303343
5.32,-4.5928576
5.33,-4.0798857
5.34,-4.6610379
5.35,-4.4093066
5.36,-4.1531553
5.37,-3.3246593
5.38,-3.5193164
5.39,-4.0495195
5.4,-3.9115387
5.41,-4.2351855
5.42,-4.6648937
5.43,-4.2014412
5.44,-4.6886002
5.45,-4.3323691
5.46,-4.1067028
5.47,-3.7705817
5.48,-1.5809501
5.49,-4.0239769
5.5,-2.9696955
5.51,-4.3366317
5.52,-4.503378
5.53,-4.3136787
5.54,-4.2794057
5.55,-4.2740979
5.56,-4.0361581
5.57,-4.2859278
5.58,-4.2285607
5.59,-4.0449718
5.6,-4.1161165
5.61,-4.4103124
5.62,-3.8322434
5.63,-4.7314737
5.64,-4.063688
5.65,-3.7600756
5.66,-2.516616
5.67,-2.2719022
5.68,-4.8367171
5.69,-4.4259267
5.7,-4.7056395
5.71,-1.8536548
5.72,-3.2468279
5.73,-4.3941583
5.74,-4.1786667
5.75,-4.6434988
5.76,-4.6342428
5.77,-5.0091808
5.78,-3.101728
5.79,-4.1615323
5.8,-3.5323797
5.81,-4.1642572
5.82,-4.1298965
5.83,-3.8318112
5.84,-4.8961377
5.85,-4.42483
5.86,-3.8598848
5.87,-3.7951231
5.88,-3.6869487
5.89,-4.1727499
5.9,-3.0029472
5.91,-4.5587263
5.92,-4.9085125
5.93,-4.056136
5.94,-3.6966189
5.95,-4.5925532
5.96,-4.1766255
5.97,-4.1653993
5.98,-4.2063227
5.99,-4.3984283
6,-3.891348
6.01,-4.5022782
6.02,-2.4431451
6.03,-4.3358357
6.04,-4.0694677
6.05,-3.9189327
6.06,-4.4994009
6.07,-3.5830735
6.08,-3.2601903
6.09,-4.0717028
6.1,-3.8018722
6.11,-2.1235306
6.12,-4.7869541
6.13,-4.4223793
6.14,-4.4892722
6.15,-4.4167268
6.16,-4.0745062
6.17,-4.2598494
6.18,-4.2178086
6.19,-4.1621025
6.2,-3.0168755
6.21,-4.481508
6.22,-2.4738887
6.23,-4.3781252
6.24,-4.5411553
6.25,-4.7141322
6.26,-4.1706221
6.27,-3.3967413
6.28,-4.7805823
6.29,-4.4146537
6.3,-4.2581304
6.31,-4.4043297
6.32,-4.4898931
6.33,-4.4021867
6.34,-4.5713051
6.35,-2.6943207
6.36,-3.5260788
6.37,-3.5793617
6.38,-4.4306971
6.39,-2.0103774
6.4,-3.9018727
6.41,-4.5101461
6.42,-4.2747943
6.43,-4.560691
6.44,-4.3418323
6.45,-4.1760724
6.46,-4.6706885
6.47,-3.3309343
6.48,-3.963395
6.49,-3.4485773
6.5,-4.2661423
6.51,-3.9903403
6.52,-4.1676885
6.53,-4.1992026
6.54,-4.0782262
6.55,-4.2984554
6.56,-4.3607501
6.57,-3.9305855
6.58,-4.1588384
6.59,-4.1465387
6.6,-4.0431903
6.61,-4.7069013
6.62,-3.7584497
6.63,-3.9335589
6.64,-4.014435
6.65,-4.3428784
6.66,-3.9237639
6.67,-3.9071691
6.68,-4.3685966
6.69,-3.7793901
6.7,-4.5432631
6.71,-4.3789226
6.72,-4.2613406
6.73,-4.1438738
6.74,-2.3940601
6.75,-4.3651318
6.76,-3.6776897
6.77,-3.0410395
6.78,-3.2689446
6.79,-2.152835
6.8,-2.2948707
6.81,-4.6974443
6.82,-4.5715142
6.83,-4.0119255
6.84,-4.6663383
6.85,-4.1543476
6.86,-3.9034972
6.87,-3.5633551
6.88,-2.7925421
6.89,-4.2882194
6.9,-4.2335861
6.91,-3.9948441
6.92,-3.9662889
6.93,-4.6167319
6.94,-3.993777
6.95,-4.5419863
6.96,-4.7253684
6.97,-4.6120193
6.98,-4.4049815
6.99,-3.8897776
7,-4.2086964
7.01,-5.1997731
7.02,-3.9332798
7.03,-4.4819077
7.04,-4.4346748
7.05,-3.8815171
7.06,-3.9775745
7.07,-3.5551545
7.08,-3.2117895
7.09,-4.3239179
7.1,-0.498485
7.11,-1.2256286
7.12,-4.3676515
7.13,-4.5748493
7.14,-3.6602345
7.15,-3.3742712
7.16,-1.7016162
7.17,-4.553855
7.18,-4.105839
7.19,-3.605257
7.2,-4.5882904
7.21,-4.1278331
7.22,-4.7757178
7.23,-1.8281844
7.24,-3.4370477
7.25,-4.4088029
7.26,-3.7054342
7.27,-3.9506445
7.28,-3.6975429
7.29,-4.35895
7.3,-3.0064774
7.31,-4.2143998
7.32,-4.4767229
7.33,-4.0718209
7.34,-4.1317308
7.35,-4.3336271
7.36,-4.2078189
7.37,-4.3310018
7.38,-2.0597185
7.39,-4.6991197
7.4,-3.3885323
7.41,-4.6724801
7.42,-3.5399979
7.43,-3.9404221
7.44,-4.6430571
7.45,-3.6861413
7.46,-3.228973
7.47,-4.1001885
7.48,-4.2634936
7.49,-4.4861333
7.5,-4.586147
7.51,-4.2027299
7.52,-3.8826464
7.53,-4.6722196
7.54,-3.8973439
7.55,-4.3392488
7.56,-2.7333686
7.57,-4.8841867
7.58,-1.1573121
7.59,-2.873941
7.6,-4.5395
7.61,-4.8398005
7.62,-4.0683528
7.63,-3.6118017
7.64,-4.4352122
7.65,-4.1635868
7.66,-4.0646077
7.67,-4.0081658
7.68,-4.4310873
7.69,-4.6222301
7.7,-5.250626
7.71,-3.6476471
7.72,-3.6300341
7.73,-3.7987204
7.74,-3.0225665
7.75,-3.9415288
7.76,-3.7102703
7.77,-5.0619905
7.78,-4.4056537
7.79,-3.9177205
7.8,-4.2751737
7.81,-4.805915
7.82,-4.6454402
7.83,-1.885214
7.84,-4.1042853
7.85,-4.3159845
7.86,-4.1929825
7.87,-4.5685931
7.88,-4.3790958
7.89,-3.1752875
7.9,-4.3236239
7.91,-3.8288413
7.92,-3.9443558
7.93,-4.9002155
7.94,-3.3900617
7.95,-4.0666433
7.96,-4.3536077
7.97,-4.4803162
7.98,-3.6125507
7.99,-2.5412606
8,-2.5136688
8.01,-4.2492499
8.02,-4.4251683
8.03,-3.630366
8.04,-4.135881
8.05,-3.6858328
8.06,-4.3596739
8.07,-0.87429987
8.08,-4.5475812
8.09,-4.2603433
8.1,-4.08627
8.11,-4.9471959
8.12,-4.2687415
8.13,-4.0897802
8.14,-3.6898802
8.15,-4.6995561
8.16,-4.6706213
8.17,-4.2868518
8.18,-4.4420889
8.19,-3.3600265
8.2,-3.7782309
8.21,-3.5168549
8.22,-3.5332008
8.23,-2.7862977
8.24,-3.8131836
8.25,-3.062244
8.26,-4.4168678
8.27,-2.8823429
8.28,-4.3515035
8.29,-4.1530764
8.3,-3.7872836
8.31,-4.2334764
8.32,-2.4051106
8.33,-4.40452
8.34,-4.4902601
8.35,-3.6572021
8.36,-4.2877567
8.37,-3.9237265
8.38,-3.1071897
8.39,-4.1653219
8.4,-4.4015015
8.41,-3.2938206
8.42,-4.5317595
8.43,-2.4763236
8.44,-3.2078558
8.45,-3.3978278
8.46,-4.7097928
8.47,-3.8674032
8.48,-3.173678
8.49,-4.7251208
8.5,-4.2388996
8.51,-3.228464
8.52,-4.4100667
8.53,-4.2912088
8.54,-4.6728684
8.55,-4.6472405
8.56,-3.7692826
8.57,-4.4240241
8.58,-2.274039
8.59,-3.1848975
8.6,-0.026785914
8.61,-4.0755135
8.62,-4.4354294
8.63,-3.3534609
8.64,-4.7507853
8.65,-4.3504316
8.66,-4.4318748
8.67,-3.6781593
8.68,-3.8821485
8.69,-3.6323184
8.7,-3.3443608
8.71,-4.0046169
8.72,-3.9825341
8.73,-4.2259613
8.74,-4.6571835
8.75,-2.0666114
8.76,-4.4966855
8.77,-4.0369455
8.78,-4.2947562
8.79,-4.2209008
8.8,-4.7835533
8.81,-3.5535545
8.82,-4.5515569
8.83,-3.8091137
8.84,-4.7199281
8.85,-4.5757854
8.86,-4.3305345
8.87,-4.1434849
8.88,-3.9034163
8.89,-3.7460275
8.9,-2.5909803
8.91,-4.2574167
8.92,-3.8120807
8.93,-4.178442
8.94,-4.3622545
8.95,-4.4098742
8.96,-4.0884293
8.97,-4.4793946
8.98,-4.6784436
8.99,-4.6503017
9,-1.4169231
9.01,-4.1857843
9.02,-2.8415405
9.03,-4.2945956
9.04,-4.2260168
9.05,-4.0626896
9.06,-4.3149596
9.07,-4.4717351
9.08,-4.9507896
9.09,-3.201215
9.1,-3.16019
9.11,-4.2031166
9.12,-4.322332
9.13,-4.1476951
9.14,-2.2784156
9.15,-4.7061539
9.16,-4.5128303
9.17,-4.8000646
9.18,-4.2419986
9.19,-4.5007432
9.2,-4.1306325
9.21,-4.1068203
9.22,-4.17116
9.23,-3.955691
9.24,-4.5440123
9.25,-4.15851
9.26,-3.6823416
9.27,-4.0399297
9.28,-4.2069201
9.29,-4.5777
9.3,-3.9942573
9.31,-4.3882953
9.32,-3.7149903
9.33,-4.2583963
9.34,-3.7561714
9.35,-4.2760811
9.36,-3.3929664
9.37,-4.1652556
9.38,-4.9687855
9.39,-4.2593228
9.4,-2.0449212
9.41,-3.8811381
9.42,-4.2550193
9.43,-4.4064735
9.44,-4.3634415
9.45,-3.7593623
9.46,-4.5476759
9.47,-4.451131
9.48,-2.9308696
9.49,-2.4012059
9.5,-3.4380451
9.51,-4.3441613
9.52,-4.2677001
9.53,-4.2144797
9.54,-4.1887903
9.55,-4.309011
9.56,-3.791
9.57,-4.5459419
9.58,-2.5499364
9.59,-4.0281318
9.6,-3.6603149
9.61,-3.916737
9.62,-4.5999441
9.63,-3.2805003
9.64,-3.5797572
9.65,-3.5514731
9.66,-4.1223966
9.67,-4.3465341
9.68,-4.0702229
9.69,-4.352539
9.7,-4.2334995
9.71,-4.9413967
9.72,-4.4034217
9.73,-4.1693349
9.74,-4.4756878
9.75,-4.0402174
9.76,-4.2123289
9.77,-3.0214259
9.78,-4.9308403
9.79,-4.2890405
9.8,-2.9911569
9.81,-3.5795596
9.82,-4.501166
9.83,-3.8878384
9.84,-4.1551917
9.85,-0.75955066
9.86,-3.3132722
9.87,-3.9551655
9.88,-4.0521989
9.89,-4.7217178
9.9,-4.4400767
9.91,-4.578529
9.92,-4.1863268
9.93,-4.2560863
9.94,-3.1410697
9.95,-5.0071673
9.96,-4.5996233
9.97,-2.1113755
9.98,-3.6543412
9.99,-4.2675506
10,-3.8308363
10.01,-3.7395056
10.02,-4.5294276
10.03,-4.386296
10.04,-4.1110334
10.05,-4.2317176
10.06,-5.1062638
10.07,-4.5947549
10.08,-4.4482892
10.09,-3.7811126
10.1,-3.4734368
10.11,-4.4206194
10.12,-3.0781313
10.13,-3.4368356
10.14,-3.6064923
10.15,-4.4934992
10.16,-4.715378
10.17,-2.8065118
10.18,-3.9358458
10.19,-3.686316
10.2,-2.948688
10.21,-3.7812531
10.22,-4.1910424
10.23,-4.9901871
10.24,-3.8464874
10.25,-4.6895812
10.26,-3.0915407
10.27,-4.3741299
10.28,-4.2448752
10.29,-4.206183
10.3,-3.3955279
10.31,-4.4705053
10.32,-4.3301203
10.33,-4.1795214
10.34,-3.7452672
10.35,-4.8967604
10.36,-4.0217843
10.37,-2.304053
10.38,-4.2742776
10.39,-4.1930523
10.4,-1.8834631
10.41,-1.7524699
10.42,-3.8709905
10.43,-3.7685786
10.44,-4.5018797
10.45,-3.7534565
10.46,-5.0016755
10.47,-4.8127921
10.48,-3.5125465
10.49,-3.1710537
10.5,-4.2903852
10.51,-3.9102337
10.52,-4.6379983
10.53,-3.2903966
10.54,-4.2783774
10.55,-2.9501626
10.56,-3.9664654
10.57,-4.6644754
10.58,-4.5488827
10.59,-4.4683241
10.6,-3.8443518
10.61,-3.6083244
10.62,-3.4885723
10.63,-3.5082112
10.64,-4.5708344
10.65,-3.956112
10.66,-3.9964459
10.67,-4.5234419
10.68,-3.7508767
10.69,-3.4618705
10.7,-3.5769786
10.71,-4.0944541
10.72,-2.5803091
10.73,-4.4126275
10.74,-4.6847306
10.75,-3.9355361
10.76,-3.8142201
10.77,-4.3049557
10.78,-4.175229
10.79,-4.3738637
10.8,-4.7439835
10.81,-4.0045316
10.82,-3.9931529
10.83,-3.078566
10.84,-4.3631187
10.85,-4.5276727
10.86,-3.505558
10.87,-3.8410838
10.88,-4.1375621
10.89,-4.6679973
10.9,-4.2966787
10.91,-3.8837808
10.92,-3.3307314
10.93,-3.8086859
10.94,-4.7134079
10.95,-3.7287736
10.96,-4.1650425
10.97,-4.2171074
10.98,-4.6136396
10.99,-4.377701
11,-4.1592533
11.01,-4.3908123
11.02,-4.6054005
11.03,-3.8796493
11.04,-4.9393856
11.05,-4.2615819
11.06,-4.147522
11.07,-4.2651058
11.08,-4.5202632
11.09,-3.7034783
11.1,-4.2328873
11.11,-2.5682949
11.12,-4.4275942
11.13,-4.4154107
11.14,-4.3445205
11.15,-3.5496471
11.16,-4.2875195
11.17,-4.1731926
11.18,-4.2907099
11.19,-4.0012271
11.2,-4.1946656
11.21,-4.5248722
11.22,-3.9544024
11.23,-4.1873053
11.24,-4.3150642
11.25,-4.6946206
11.26,-3.3377226
11.27,-3.6521506
11.28,-4.5160959
11.29,-4.2875574
11.3,-2.0069465
11.31,-3.4691667
11.32,-4.1316317
11.33,-3.6687266
11.34,-3.8671442
11.35,-4.6603386
11.36,-4.1550187
11.37,-3.1487453
11.38,-4.2284828
11.39,-3.716171
11.4,-2.7703735
11.41,-4.3076114
11.42,-4.1482109
11.43,-4.141231
11.44,-4.2565552
11.45,-4.4539844
11.46,-4.5421122
11.47,-4.5448638
11.48,-4.2530214
11.49,-4.1834754
11.5,-1.3603778
11.51,-2.3407806
11.52,-4.1834122
11.53,-4.5822347
11.54,-4.4140947
11.55,-4.3744598
11.56,-4.1358208
11.57,-4.9385469
11.58,-3.3238828
11.59,-4.0690305
11.6,-3.2962865
11.61,-4.3115076
11.62,-3.6977431
11.63,-2.5657902
11.64,-4.819013
11.65,-4.3541735
11.66,-4.6354732
11.67,-3.7559906
11.68,-3.8020867
11.69,-4.528795
11.7,-4.7232383
11.71,-4.1285495
11.72,-4.1483491
11.73,-4.1516097
11.74,-1.3598996
11.75,-4.1857735
11.76,-3.5688179
11.77,-3.7646586
11.78,-3.947406
11.79,-4.425429
11.8,-4.4947033
11.81,-3.9442451
11.82,-3.5324485
11.83,-3.6286294
11.84,-4.9785419
11.85,-4.5031296
11.86,-3.3756575
11.87,-4.0487186
11.88,-4.5108181
11.89,-3.2342912
11.9,-3.6918707
11.91,-2.5163767
11.92,-3.8896012
11.93,-3.3492861
11.94,-2.4684075
11.95,-3.8359789
11.96,-3.7084101
11.97,-3.8777125
11.98,-3.8923167
11.99,-4.4400648
12,-3.7194347
12.01,-4.4340661
12.02,-4.4586924
12.03,-4.5542976
12.04,-3.9903807
12.05,-3.0313744
12.06,-3.8058011
12.07,-3.0815218
12.08,-4.2326413
12.09,-5.3228758
12.1,-3.6002323
12.11,-4.1089069
12.12,-4.8076114
12.13,-4.277417
12.14,-4.4341754
12.15,-4.1790407
12.16,-4.1996318
12.17,-4.779278
12.18,-3.984435
12.19,-3.2168305
12.2,-4.4947129
12.21,-4.5976222
12.22,-2.5903462
12.23,-4.753663
12.24,-4.4414774
12.25,-4.5626133
12.26,-3.6712814
12.27,-4.8825063
12.28,-4.1988021
12.29,-2.9457719
12.3,-4.4738595
12.31,-4.1706049
12.32,-4.0053096
12.33,-2.7866668
12.34,-4.4365581
12.35,-3.9137614
12.36,-4.5658614
12.37,-4.4849409
12.38,-3.018378
12.39,-3.7530522
12.4,-4.8121042
12.41,-4.1866512
12.42,-4.1986826
12.43,-2.1578965
12.44,-3.8074101
12.45,-3.7214878
12.46,-4.4115513
12.47,-3.41071
12.48,-3.9658324
12.49,-4.3011596
12.5,-4.4255523
12.51,-2.621887
12.52,-4.2948395
12.53,-4.125881
12.54,-4.2039367
12.55,-3.3110446
12.56,-4.4198062
12.57,-1.6487275
12.58,-4.1124535
12.59,-4.2724211
12.6,-4.4411678
12.61,-2.8477283
12.62,-4.3647573
12.63,-4.4653646
12.64,-3.6470428
12.65,-4.0345922
12.66,-4.2187306
12.67,-4.3516393
12.68,-4.160204
12.69,-3.3883997
12.7,-3.3824735
12.71,-3.4323141
12.72,-4.0859065
12.73,-4.2379639
12.74,-4.4820421
12.75,-3.6732974
12.76,-4.5995604
12.77,-3.1552238
12.78,-4.2110634
12.79,-0.31383376
12.8,-4.2653416
12.81,-4.0861319
12.82,-4.2215495
12.83,-4.6045097
12.84,-4.8749546
12.85,-4.262999
12.86,-4.2683178
12.87,-4.3168722
12.88,-3.1658001
12.89,-3.316676
12.9,-4.3473411
12.91,-3.9795435
12.92,-2.8140086
12.93,-2.6523775
12.94,-4.1272847
12.95,-3.0204207
12.96,-4.2485017
12.97,-3.2599892
12.98,-4.1377411
12.99,-3.9428384
13,-4.4511639
13.01,-4.0653093
13.02,-3.7591636
13.03,-4.22171
13.04,-4.46167
13.05,-2.8193443
13.06,-4.2657792
13.07,-4.3562918
13.08,-4.3066947
13.09,-3.9847655
13.1,-1.9144527
13.11,-3.8757592
13.12,-3.6252402
13.13,-5.3247055
13.14,-3.832141
13.15,-4.4308081
13.16,-3.2407493
13.17,-4.1270607
13.18,-4.071951
13.19,-5.2786926
13.2,-3.3209323
13.21,-4.2119804
13.22,-4.2993661
13.23,-3.8625943
13.24,-4.545353
13.25,-4.3955058
13.26,-3.6014081
13.27,-4.1669575
13.28,-4.1892758
13.29,-3.5832558
13.3,-4.6110287
13.31,-3.798198
13.32,-3.921148
13.33,-3.9564746
13.34,-4.0497326
13.35,-4.2577648
13.36,-4.3135223
13.37,-4.4150806
13.38,-4.410051
13.39,-4.4891322
13.4,-4.7646264
13.41,-4.5807548
13.42,-4.7128421
13.43,-3.5917104
13.44,-4.0912756
13.45,-3.1653556
13.46,-4.5691984
13.47,-4.2742304
13.48,-4.1100067
13.49,-3.7544693
13.5,-3.9150359
13.51,-4.5637803
13.52,-4.0410343
13.53,-0.96246744
13.54,-4.01973
13.55,-3.6816265
13.56,-3.6448793
13.57,-3.5878044
13.58,-4.3632649
13.59,-4.9416793
13.6,-4.1721549
13.61,-3.1015999
13.62,-4.4509016
13.63,-4.0297098
13.64,-4.190551
13.65,-5.3560599
13.66,-4.2953268
13.67,-4.0387092
13.68,-3.5021148
13.69,-2.5197369
13.7,-3.9841909
13.71,-3.5047048
13.72,-2.8994375
13.73,-1.4287189
13.74,-3.5076934
13.75,-4.2491131
13.76,-4.6647857
13.77,-4.0677922
13.78,-3.4248578
13.79,-4.072469
13.8,-4.4327926
13.81,-4.2101541
13.82,-4.2157762
13.83,-4.2935227
13.84,-4.2364939
13.85,-4.495519
13.86,-2.2941248
13.87,-3.8825617
13.88,-3.5367375
13.89,-3.8410326
13.9,-2.7665321
13.91,-1.7097396
13.92,-4.599901
13.93,-4.304981
13.94,-4.697555
13.95,-2.2502088
13.96,-4.4362025
13.97,-4.4539512
13.98,-4.1323286
13.99,-3.5189068
14,-3.685131
14.01,-4.2061529
14.02,-3.3003973
14.03,-4.3504532
14.04,-4.2955694
14.05,-4.0661137
14.06,-4.3834794
14.07,-4.5898193
14.08,-4.4701834
14.09,-4.2768681
14.1,-2.8692963
14.11,-3.2884467
14.12,-4.4548998
14.13,-4.2615601
14.14,-4.8371814
14.15,-4.4122975
14.16,-3.9673677
14.17,-3.1940335
14.18,-4.3947331
14.19,-3.4088494
14.2,-4.5637072
14.21,-4.0692977
14.22,-3.6888954
14.23,-4.7291213
14.24,-4.5441225
14.25,-4.4032107
14.26,-4.4363736
14.27,-2.8989551
14.28,-3.7971201
14.29,-3.1471127
14.3,-4.4706339
14.31,-3.7475441
14.32,-2.2107671
14.33,-3.3245933
14.34,-4.4249388
14.35,-4.1276431
14.36,-4.7699575
14.37,-4.7463252
14.38,-4.1988044
14.39,-2.5970349
14.4,-0.66154496
14.41,-3.8089023
14.42,-4.6319983
14.43,-3.9074792
14.44,-4.4859867
14.45,-2.1826137
14.46,-3.6913222
14.47,-4.0629659
14.48,-4.3047572
14.49,-3.8299167
14.5,-3.9651073
14.51,-3.8825742
14.52,-3.7425743
14.53,-4.2440153
14.54,-4.8267863
14.55,-4.7691646
14.56,-4.3215966
14.57,-4.418568
14.58,-4.1968684
14.59,-2.6264892
14.6,-3.8681796
14.61,-3.9661046
14.62,-4.1539663
14.63,-2.8184411
14.64,-2.8789093
14.65,-4.7411821
14.66,-3.4935458
14.67,-4.2657751
14.68,-4.5581001
14.69,-4.4821725
14.7,-4.4433445
14.71,-3.8382957
14.72,-4.1772529
14.73,-2.2679608
14.74,-3.4510401
14.75,-4.0709539
14.76,-4.5693877
14.77,-5.1371707
14.78,-4.4762592
14.79,-4.0133644
14.8,-3.9483283
14.81,-4.9455342
14.82,-4.1731195
14.83,-3.5454371
14.84,-4.1340615
14.85,-1.9598643
14.86,-4.8905992
14.87,-4.5211701
14.88,-4.2977497
14.89,-4.5500947
14.9,-3.5688685
14.91,-4.5409267
14.92,-3.3687618
14.93,-4.342846
14.94,-4.0745415
14.95,-3.6147199
14.96,-2.7869799
14.97,-4.0010608
14.98,-4.2128213
14.99,-4.4304497
15,-4.9529896
15.01,-2.6571157
15.02,-4.254399
15.03,-2.7346121
15.04,-3.3497658
15.05,-4.1199357
15.06,-4.1915129
15.07,-2.9980556
15.08,-3.7229977
15.09,-4.0690151
15.1,-3.5129287
15.11,-4.5512119
15.12,-4.9723719
15.13,-2.4267628
15.14,-3.8615155
15.15,-5.032737
15.16,-4.3396373
15.17,-4.3647796
15.18,-3.4296299
15.19,-3.9794381
15.2,-4.4003577
15.21,-2.6889957
15.22,-4.0264944
15.23,-5.1441822
15.24,-3.459704
15.25,-1.0425079
15.26,-3.9300856
15.27,-4.0037836
15.28,-4.3699411
15.29,-4.3072706
15.3,-4.42373
15.31,-4.4875248
15.32,-4.7868251
15.33,-4.1054079
15.34,-4.2869897
15.35,-4.3611408
15.36,-4.3626874
15.37,-4.5928607
15.38,-2.1416927
15.39,-4.1948318
15.4,-4.1682921
15.41,-3.9786592
15.42,-4.1749986
15.43,-3.594544
15.44,-4.3802988
15.45,-3.1196829
15.46,-4.8993654
15.47,-3.1963861
15.48,-4.725705
15.49,-3.9462561
15.5,-4.6036151
15.51,-4.1247479
15.52,-4.1224991
15.53,-3.4619341
15.54,-3.212022
15.55,-4.5726484
15.56,-3.8067534
15.57,-4.2554092
15.58,-3.8197935
15.59,-4.2004416
15.6,-4.3633312
15.61,-2.3598137
15.62,-3.089339
15.63,-2.8264806
15.64,-2.7377778
15.65,-4.3152179
15.66,-4.4031899
15.67,-4.5624642
15.68,-4.4423892
15.69,-4.0364771
15.7,-4.0413373
15.71,-3.5202388
15.72,-3.9195651
15.73,-4.7266159
15.74,-4.6336219
15.75,-4.3130066
15.76,-3.5667121
15.77,-4.2769746
15.78,-3.856606
15.79,-3.3537834
15.8,-5.1365807
15.81,-4.1166749
15.82,-3.9315877
15.83,-4.2080126
15.84,-4.3595609
15.85,-3.0674987
15.86,-4.153241
15.87,-4.6378598
15.88,-4.4138316
15.89,-3.7929374
15.9,-4.5236449
15.91,-4.6440326
15.92,-4.758896
15.93,-3.3930034
15.94,-2.7782025
15.95,-3.6699468
15.96,-4.4615036
15.97,-4.1206412
15.98,-3.7703243
15.99,-4.4484068
16,-3.5628923
16.01,-4.3142768
16.02,-3.5158322
16.03,-3.0845442
16.04,-3.1204981
16.05,-3.1376639
16.06,-4.105003
16.07,-4.4437057
16.08,-4.0430577
16.09,-2.4391682
16.1,-3.626653
16.11,-3.6536286
16.12,-4.6984561
16.13,-4.3529362
16.14,-4.137519
16.15,-1.9249492
16.16,-3.0717067
16.17,-4.0466078
16.18,-4.2583273
16.19,-3.4651708
16.2,-4.1404331
16.21,-4.5297891
16.22,-4.2528141
16.23,-4.2710985
16.24,-2.0900589
16.25,-3.143235
16.26,-2.6519685
16.27,-4.0326626
16.28,-4.5751663
16.29,-3.2943411
16.3,-3.7011763
16.31,-3.8789517
16.32,-3.2232203
16.33,-4.3506207
16.34,-4.4068677
16.35,-4.4041286
16.36,-3.5928041
16.37,-4.430633
16.38,-4.1348014
16.39,-2.6803797
16.4,-4.5580745
16.41,-4.2878984
16.42,-4.3512906
16.43,-4.2534212
16.44,-3.5186014
16.45,-3.4593222
16.46,-4.7371019
16.47,-3.7469921
16.48,-2.4962496
16.49,-3.7350089
16.5,-4.1557439
16.51,-2.593494
16.52,-4.2167325
16.53,-3.6462074
16.54,-4.2926074
16.55,-2.7357143
16.56,-2.8472765
16.57,-2.7089289
16.58,-3.6717876
16.59,-4.4210328
16.6,-2.4515981
16.61,-4.1767867
16.62,-4.2093465
16.63,-4.0229118
16.64,-4.2292249
16.65,-4.4738208
16.66,-4.222555
16.67,-4.3171954
16.68,-4.7029447
16.69,-3.9978241
16.7,-4.3986297
16.71,-4.413954
16.72,-4.0340196
16.73,-4.4800286
16.74,-4.2735373
16.75,-4.3759383
16.76,-3.7705321
16.77,-4.2033312
16.78,-4.4236587
16.79,-4.2974005
16.8,-3.7556031
16.81,-3.9510028
16.82,-3.9519064
16.83,-3.8332914
16.84,-4.4484541
16.85,-4.1896724
16.86,-3.5355685
16.87,-4.1901082
16.88,-4.4849424
16.89,-4.5909376
16.9,-4.1274279
16.91,-3.4705945
16.92,-3.6602985
16.93,-3.9930861
16.94,-4.5207111
16.95,-4.4032012
16.96,-3.9962879
16.97,-4.5026475
16.98,-4.2719053
16.99,-1.6608939
17,-4.2881055
17.01,-2.5017845
17.02,-4.6167913
17.03,-4.5909211
17.04,-4.2390802
17.05,-4.2419315
17.06,-3.3454775
17.07,-4.0999253
17.08,-4.1543684
17.09,-4.1907527
17.1,-4.6371058
17.11,-4.1999922
17.12,-2.7485339
17.13,-4.5560267
17.14,-3.7718668
17.15,-4.0965632
17.16,-4.3049985
17.17,-3.8798663
17.18,-3.6198694
17.19,-4.084082
17.2,-3.5009454
17.21,-4.2334619
17.22,-3.812423
17.23,-4.4657945
17.24,-3.3484507
17.25,-4.1484427
17.26,-4.5672411
17.27,-4.4211148
17.28,-3.9540655
17.29,-3.5653214
17.3,-3.7817822
17.31,-4.4780209
17.32,-4.4324614
17.33,-2.9942807
17.34,-2.5124154
17.35,-4.2791351
17.36,-4.4735084
17.37,-4.5245383
17.38,-3.696929
17.39,-3.9324999
17.4,-3.836315
17.41,-4.0785749
17.42,-4.3638219
17.43,-4.9337094
17.44,-2.9132429
17.45,-2.9681589
17.46,-3.4551366
17.47,-4.1613526
17.48,-4.4836482
17.49,-4.9935894
17.5,-4.5936185
17.51,-4.3187784
17.52,-2.5128852
17.53,-3.8620135
17.54,-3.1703073
17.55,-4.8346311
17.56,-3.4390101
17.57,-3.9929762
17.58,-4.2849801
17.59,-4.3766928
17.6,-3.9115856
17.61,-3.9597919
17.62,-4.1025842
17.63,-4.3589073
17.64,-4.9255503
17.65,-4.3921049
17.66,-4.0598681
17.67,-3.750495
17.68,-3.4034816
17.69,-3.8114743
17.7,-4.0929343
17.71,-4.4789604
17.72,-4.673875
17.73,-4.4485807
17.74,-4.3558976
17.75,-4.0994379
17.76,-4.5020705
17.77,-3.774951
17.78,-3.8419543
17.79,-4.3765789
17.8,-4.3282048
17.81,-4.480106
17.82,-4.3668849
17.83,-4.1308918
17.84,-2.1267258
17.85,-4.0307342
17.86,-4.2289931
17.87,-3.8653767
17.88,-4.4004845
17.89,-4.1341511
17.9,-3.651288
17.91,-4.0653121
17.92,-4.5002013
17.93,-4.0213775
17.94,-3.6555887
17.95,-4.6015528
17.96,-3.5335456
17.97,-3.2965679
17.98,-4.2018277
17.99,-4.3244303
18,-4.1184524
18.01,-3.8570188
18.02,-4.7719986
18.03,-3.76591
18.04,-4.2824944
18.05,-4.3928745
18.06,-3.4032057
18.07,-2.9591312
18.08,-3.3253789
18.09,-5.091847
18.1,-4.3684052
18.11,-4.407883
18.12,-2.2368815
18.13,-4.4694149
18.14,-3.8059081
18.15,-4.9286078
18.16,-4.043059
18.17,-4.112434
18.18,-4.2024991
18.19,-3.0625304
18.2,-4.1244153
18.21,-4.2516982
18.22,-4.2837665
18.23,-4.2528582
18.24,-2.6875552
18.25,-3.278613
18.26,-3.2185173
18.27,-4.3566563
18.28,-3.0722495
18.29,-4.2287972
18.3,-4.2851703
18.31,-4.4653412
18.32,-3.6005257
18.33,-4.770824
18.34,-4.6485445
18.35,-3.9642578
18.36,-4.7804506
18.37,-4.0568604
18.38,-4.0070373
18.39,-4.0061167
18.4,-4.3543583
18.41,-4.264653
18.42,-3.1005689
18.43,-3.45518
18.44,-2.8592058
18.45,-4.2795524
18.46,-4.2120611
18.47,-3.13418
18.48,-4.2174822
18.49,-2.4352509
18.5,-4.528843
18.51,-4.9533992
18.52,-4.1351416
18.53,-4.3902529
18.54,-4.5545601
18.55,-4.5998295
18.56,-3.4124961
18.57,-4.4285545
18.58,-4.0300495
18.59,-4.1144941
18.6,-4.2205985
18.61,-3.7470322
18.62,-4.5632221
18.63,-2.8123237
18.64,-3.366287
18.65,-4.705454
18.66,-3.0478156
18.67,-4.3672346
18.68,-2.7046636
18.69,-3.1722554
18.7,-4.3982428
18.71,-2.4353093
18.72,-3.5533199
18.73,-4.2172733
18.74,-4.4269575
18.75,-2.6281756
18.76,-3.919967
18.77,-4.9092129
18.78,-3.9681123
18.79,-4.2810966
18.8,-4.3984718
18.81,-4.4515101
18.82,-5.3632414
18.83,-4.0696
18.84,-4.1953443
18.85,-4.0902879
18.86,-3.7695858
18.87,-2.8363388
18.88,-3.2410278
18.89,-3.4590113
18.9,-4.2246997
18.91,-4.5905544
18.92,-2.9063735
18.93,-0.91486722
18.94,-4.0333087
18.95,-5.026336
18.96,-3.5904519
18.97,-3.7076264
18.98,-4.1621342
18.99,-4.4205111
19,-4.0238887
19.01,-4.3288956
19.02,-3.9375373
19.03,-4.1055727
19.04,-4.8369927
19.05,-4.2093921
19.06,-4.5111118
19.07,-4.0494608
19.08,-3.6573735
19.09,-4.4908111
19.1,-4.1888305
19.11,-4.1759504
19.12,-4.4903317
19.13,-4.4846993
19.14,-4.0210146
19.15,-0.10337963
19.16,-3.4514176
19.17,-3.9196742
19.18,-4.3865352
19.19,-4.411331
19.2,-3.9495199
19.21,-3.9268341
19.22,-4.0735799
19.23,-4.3017363
19.24,-4.2475046
19.25,-3.8297254
19.26,-2.8612356
19.27,-3.9998489
19.28,-2.9139329
19.29,-4.4816878
19.3,-4.3339803
19.31,-4.1078369
19.32,-4.5946453
19.33,-2.7562572
19.34,-4.3330415
19.35,-4.2586979
19.36,-2.2883285
19.37,-3.8835825
19.38,-3.7885099
19.39,-4.2317954
19.4,-2.6874443
19.41,-4.6070255
19.42,-3.7924283
19.43,-3.941898
19.44,-3.4024618
19.45,-3.0758165
19.46,-4.4965534
19.47,-4.2298401
19.48,-4.4657015
19.49,-3.371555
19.5,-3.3711347
19.51,-3.1212506
19.52,-3.2282778
19.53,-3.3568228
19.54,-4.4718114
19.55,-4.1842563
19.56,-1.9115483
19.57,-2.9413804
19.58,-4.6114908
19.59,-4.191841
19.6,-3.8075052
19.61,-3.8207336
19.62,-3.7964769
19.63,-4.6324542
19.64,-4.4583492
19.65,-4.5026653
19.66,-3.4191493
19.67,-4.6601539
19.68,-2.2269837
19.69,-4.2590169
19.7,-3.9698791
19.71,-4.1652941
19.72,-4.2153753
19.73,-2.1129165
19.74,-2.4188669
19.75,-4.2139255
19.76,-4.4584532
19.77,-4.611428
19.78,-2.2716163
19.79,-3.1510359
19.8,-4.4857332
19.81,-2.8033772
19.82,-3.3105961
19.83,-4.9824309
19.84,-4.1336668
19.85,-3.7243974
19.86,-4.235385
19.87,-3.5586303
19.88,-1.1660573
19.89,-4.4649659
19.9,-4.7983383
19.91,-3.6276471
19.92,-4.7258321
19.93,-4.6220637
19.94,-3.2958666
19.95,-3.5861127
19.96,-4.6084471
19.97,-3.9509106
19.98,-4.5051329
19.99,-4.2210106
20,-4.1816668
20.01,-3.57943
20.02,-4.0514991
20.03,-4.5263335
20.04,-4.6488263
20.05,-4.4784405
20.06,-3.8937237
20.07,-3.7872985
20.08,-4.4832607
20.09,-4.8482871
20.1,-3.6295928
20.11,-2.9717632
20.12,-4.1268604
20.13,-4.2579763
20.14,-4.2189924
20.15,-1.7954276
20.16,-4.3824864
20.17,-2.0407862
20.18,-4.4962148
20.19,-3.9891633
20.2,-1.4328485
20.21,-4.1660627
20.22,-3.8263715
20.23,-4.2772071
20.24,-4.508115
20.25,-4.5513137
20.26,-3.226453
20.27,-2.0508204
20.28,-4.2805287
20.29,-4.2885992
20.3,-3.1617203
20.31,-3.1055486
20.32,-3.6029332
20.33,-2.6256274
20.34,-4.5562783
20.35,-4.0217103
20.36,-2.8339329
20.37,-4.096364
20.38,-4.0932866
20.39,-4.4700447
20.4,-0.49068275
20.41,-4.400226
20.42,-4.510396
20.43,-4.6662346
20.44,-4.6680587
20.45,-4.3358287
20.46,-4.2642007
20.47,-4.613352
20.48,-2.9394927
20.49,-3.9768775
20.5,-5.3264659
20.51,-4.0170237
20.52,-3.2601623
20.53,-3.9435017
20.54,-4.0496591
20.55,-3.7148284
20.56,-4.707495
20.57,-4.054482
20.58,-4.2295249
20.59,-3.7986409
20.6,-3.7625605
20.61,-4.164744
20.62,-4.5320006
20.63,-4.0109618
20.64,-4.3333471
20.65,-2.9781176
20.66,-4.0361864
20.67,-4.1332235
20.68,-4.3959241
20.69,-4.3127845
20.7,-4.8342699
20.71,-4.4799882
20.72,-3.9641685
20.73,-3.049592
20.74,-4.1669676
20.75,-4.4516147
20.76,-3.6896759
20.77,-4.3790598
20.78,-4.4225668
20.79,-2.5631117
20.8,-4.3763105
20.81,-4.3882207
20.82,-4.1596959
20.83,-4.2512197
20.84,-4.688854
20.85,-2.8615221
20.86,-3.874495
20.87,-2.6996596
20.88,-3.8858208
20.89,-4.0849888
20.9,-3.5835599
20.91,-3.715517
20.92,-3.4122551
20.93,-3.4302869
20.94,-3.8384889
20.95,-4.6216331
20.96,-4.5845462
20.97,-3.4242862
20.98,-4.7086754
20.99,-4.3304736
21,-4.2708338
21.01,-3.0740758
21.02,-3.6637162
21.03,-3.5534243
21.04,-4.1505601
21.05,-4.1359475
21.06,-3.4204537
21.07,-3.2062237
21.08,-4.1496238
21.09,-4.6564777
21.1,-4.2272026
21.11,-4.2293221
21.12,-4.1594151
21.13,-4.0274024
21.14,-4.3929671
21.15,-3.6536811
21.16,-4.2417549
21.17,-4.0773687
21.18,-4.3960145
21.19,-3.5973387
21.2,-5.0811433
21.21,-3.9254775
21.22,-3.5901638
21.23,-3.8293488
21.24,-3.7957717
21.25,-4.1918826
21.26,-4.4563088
21.27,-4.3089422
21.28,-3.8392228
21.29,-3.7975707
21.3,-3.9889138
21.31,-4.0215953
21.32,-4.8476972
21.33,-4.2030183
21.34,-4.249702
21.35,-3.9657294
21.36,-3.8979737
21.37,-2.9179543
21.38,-3.2004712
21.39,-4.3102607
21.4,-4.5474286
21.41,-3.8066155
21.42,-3.5614829
21.43,-3.3987729
21.44,-3.093336
21.45,-2.8925659
21.46,-4.4064036
21.47,-5.0212755
21.48,-4.6459955
21.49,-4.6850957
21.5,-4.1356393
21.51,-4.5159285
21.52,-4.4985208
21.53,-3.8621879
21.54,-3.9482904
21.55,-3.8965621
21.56,-4.4427144
21.57,-4.4936919
21.58,-4.3435603
21.59,-4.6923461
21.6,-4.9083889
21.61,-3.6295909
21.62,-4.3759149
21.63,-3.9025272
21.64,-2.9370275
21.65,-4.1740985
21.66,-4.1035469
21.67,-3.6322342
21.68,-4.6368762
21.69,-4.4263503
21.7,-3.3091914
21.71,-4.0253548
21.72,-4.5471764
21.73,-3.3681352
21.74,-4.3523807
21.75,-3.9237869
21.76,-3.9651454
21.77,-4.5083109
21.78,-5.0198421
21.79,-4.9324241
21.8,-4.4075379
21.81,-4.3345902
21.82,-4.6039255
21.83,-3.4896928
21.84,-4.408183
21.85,-4.2354752
21.86,-4.3690902
21.87,-4.2384319
21.88,-2.8459733
21.89,-4.2548888
21.9,-4.475964
21.91,-3.5637756
21.92,-3.777925
21.93,-4.4592266
21.94,-3.7509812
21.95,-3.6452646
21.96,-4.3154445
21.97,-1.7394736
21.98,-2.6496499
21.99,-4.0189757
22,-4.3894327
22.01,-4.5687397
22.02,-3.6416487
22.03,-4.4219663
22.04,-4.1691009
22.05,-3.0056483
22.06,-3.624093
22.07,-1.6485562
22.08,-4.7112644
22.09,-4.6731617
22.1,-3.5737055
22.11,-4.1290443
22.12,-3.4944477
22.13,-3.9779444
22.14,-3.9596191
22.15,-4.3368007
22.16,-3.399077
22.17,-3.2044722
22.18,-4.5090329
22.19,-4.1649855
22.2,-4.4655962
22.21,-4.9508137
22.22,-4.3836332
22.23,-4.5594319
22.24,-5.1145679
22.25,-4.1467404
22.26,-4.7728641
22.27,-4.7151014
22.28,-3.991122
22.29,-4.3155574
22.3,-1.9920527
22.31,-4.4791446
22.32,-4.3002712
22.33,-4.3689855
22.34,-3.930882
22.35,-4.4180317
22.36,-3.4100016
22.37,-4.5474396
22.38,-4.7687245
22.39,-4.2799592
22.4,-4.0670364
22.41,-3.6630131
22.42,-3.5461559
22.43,-4.9975144
22.44,-4.2894561
22.45,-3.8555857
22.46,-4.0087137
22.47,-4.0374011
22.48,-4.2273816
22.49,-1.9629878
22.5,-4.4561686
22.51,-4.4333214
22.52,-3.896695
22.53,-3.8496313
22.54,-3.273891
22.55,-3.763392
22.56,-4.1118721
22.57,-4.2182249
22.58,-2.8296015
22.59,-4.2883792
22.6,-4.045139
22.61,-4.4938943
22.62,-3.9712342
22.63,-4.6241964
22.64,-4.6279413
22.65,-3.9081116
22.66,-4.3812349
22.67,-4.2598433
22.68,-4.4629874
22.69,-4.4712827
22.7,-4.71606
22.71,-3.955742
22.72,-4.6544898
22.73,-4.8755345
22.74,-2.9188103
22.75,-4.2389793
22.76,-3.6597868
22.77,-2.752418
22.78,-4.3355835
22.79,-2.5113947
22.8,-3.930183
22.81,-3.8575004
22.82,-4.5620897
22.83,-4.468391
22.84,-4.3049122
22.85,-2.2173072
22.86,-4.522724
22.87,-2.0941731
22.88,-4.0181648
22.89,-5.0609442
22.9,-2.7932995
22.91,-4.5590216
22.92,-4.3035919
22.93,-3.0290305
22.94,-4.3729401
22.95,-4.6595641
22.96,-2.3234169
22.97,-3.7779515
22.98,-3.2631595
22.99,-4.7712561
23,-4.2167339
23.01,-4.436138
23.02,-4.2755807
23.03,-3.170917
23.04,-4.3787801
23.05,-3.7819334
23.06,-4.6431663
23.07,-4.3548147
23.08,-4.45251
23.09,-2.7084169
23.1,-4.4864947
23.11,-4.12159
23.12,-4.1715992
23.13,-4.3218593
23.14,-4.3002684
23.15,-3.601798
23.16,-4.2630449
23.17,-3.5223222
23.18,-4.4657423
23.19,-4.4355887
23.2,-2.7745496
23.21,-4.1547005
23.22,-3.6833285
23.23,-4.0201691
23.24,-4.4844281
23.25,-4.350601
23.26,-3.7428062
23.27,-3.9837201
23.28,-3.6626253
23.29,-4.414647
23.3,-4.6366593
23.31,-4.3266878
23.32,-4.0862975
23.33,-4.9741853
23.34,-2.0512948
23.35,-4.8924488
23.36,-4.3198593
23.37,-3.5843461
23.38,-3.2179461
23.39,-4.2292308
23.4,-4.426199
23.41,-4.7975001
23.42,-3.1373319
23.43,-4.1980256
23.44,-3.9262377
23.45,-3.7921101
23.46,-4.3045789
23.47,-4.1196921
23.48,-2.8896921
23.49,-4.3109614
23.5,-4.375346
23.51,-4.3876518
23.52,-4.654431
23.53,-4.2689371
23.54,-2.0653008
23.55,-4.5349145
23.56,-3.2608214
23.57,-4.8601726
23.58,-4.3117656
23.59,-3.973819
23.6,-4.4436731
23.61,-3.6521942
23.62,-4.4003583
23.63,-4.1551927
23.64,-4.3210442
23.65,-4.2539645
23.66,-4.4308192
23.67,-3.8567181
23.68,-4.3286242
23.69,-4.1414815
23.7,-2.383218
23.71,-5.073388
23.72,-3.6744936
23.73,-4.2739075
23.74,-4.4063952
23.75,-4.622444
23.76,-2.8982445
23.77,-4.172009
23.78,-4.5162271
23.79,-3.8756848
23.8,-4.1126164
23.81,-4.2760625
23.82,-3.9791922
23.83,-2.5079912
23.84,-2.9273122
23.85,-3.3082762
23.86,-2.9580637
23.87,-4.5863188
23.88,-3.65587
23.89,-3.3972037
23.9,-4.129271
23.91,-4.2189331
23.92,-4.465276
23.93,-4.7628502
23.94,-3.7015608
23.95,-4.5769677
23.96,-2.5728643
23.97,-4.2348772
23.98,-4.1919972
23.99,-4.3699972
24,-4.535671
24.01,-2.767957
24.02,-2.888029
24.03,-4.5917396
24.04,-4.3804526
24.05,-4.5242615
24.06,-4.2017867
24.07,-3.7708084
24.08,-3.2327023
24.09,-4.5849918
24.1,-4.388169
24.11,-4.6866825
24.12,-2.9844048
24.13,-4.3952786
24.14,-4.4525938
24.15,-4.4892678
24.16,-4.132004
24.17,-4.915483
24.18,-4.6417945
24.19,-4.6625257
24.2,-3.7878621
24.21,-4.6447125
24.22,-4.8596401
24.23,-5.1429424
24.24,-2.8213004
24.25,-4.2590127
24.26,-4.1702062
24.27,-4.3180732
24.28,-4.9986986
24.29,-3.6791564
24.3,-4.9440794
24.31,-3.921277
24.32,-4.5401374
24.33,-3.915045
24.34,-3.7829103
24.35,-4.1864511
24.36,-4.5880008
24.37,-4.0187545
24.38,-4.1332756
24.39,-4.391396
24.4,-1.8753234
24.41,-4.2085189
24.42,-3.8464567
24.43,-3.540773
24.44,-3.5924518
24.45,-5.0262931
24.46,-3.6020416
24.47,-4.5866215
24.48,-4.1538619
24.49,-4.3213556
24.5,-4.3429825
24.51,-4.5060505
24.52,-3.6417284
24.53,-4.1778506
24.54,-4.0978935
24.55,-4.5284187
24.56,-3.5286513
24.57,-4.0198535
24.58,-3.9299777
24.59,-4.2446627
24.6,-3.2604029
24.61,-3.5181213
24.62,-2.8391665
24.63,-4.381493
24.64,-4.4752478
24.65,-3.8173476
24.66,-4.3839022
24.67,-4.2489191
24.68,-2.8233726
24.69,-3.8922529
24.7,-3.3348579
24.71,-4.1789633
24.72,-3.7519586
24.73,-4.2949562
24.74,-3.2984291
24.75,-3.7809433
24.76,-3.2152091
24.77,-3.2273071
24.78,-3.9803729
24.79,-3.1500724
24.8,-4.6265244
24.81,-2.8676431
24.82,-4.3389485
24.83,-1.8232074
24.84,-4.2686566
24.85,-4.0229385
24.86,-4.4045559
24.87,-3.7126293
24.88,-4.0378949
24.89,-4.3196175
24.9,-3.36263
24.91,-4.0790934
24.92,-3.9499376
24.93,-4.0535891
24.94,-4.2944705
24.95,-4.2798287
24.96,-4.1323902
24.97,-4.1486683
24.98,-3.0182048
24.99,-4.3770188
25,-3.5471201
25.01,-4.3069154
25.02,-4.6845242
25.03,-4.9644584
25.04,-3.7015131
25.05,-4.2137533
25.06,-3.7949178
25.07,-4.3053782
25.08,-4.8323577
25.09,-5.1074094
25.1,-4.2295954
25.11,-2.6185489
25.12,-4.337805
25.13,-4.4576472
25.14,-3.7005945
25.15,-3.7331386
25.16,-2.8861566
25.17,-3.3647745
25.18,-4.4301992
25.19,-4.1379145
25.2,-3.8258195
25.21,-4.4008663
25.22,-3.9655919
25.23,-3.8462645
25.24,-4.0995592
25.25,-4.3429595
25.26,-4.3077161
25.27,-4.2213109
25.28,-4.5192266
25.29,-4.2401307
25.3,-2.9950163
25.31,-4.4663138
25.32,-3.5079465
25.33,-4.4821794
25.34,-1.9401705
25.35,-3.6466914
25.36,-5.0753132
25.37,-2.9014709
25.38,-0.93947563
25.39,-4.2355126
25.4,-4.2437495
25.41,-5.2561644
25.42,-4.2967341
25.43,-3.3079295
25.44,-4.18251
25.45,-3.9551021
25.46,-3.2185699
25.47,-4.7956289
25.48,-3.3618834
25.49,-0.99684727
25.5,-4.2801009
25.51,-3.0982373
25.52,-3.6054814
25.53,-3.2485173
25.54,-4.2321343
25.55,-3.3564537
25.56,-4.0982201
25.57,-5.0828137
25.58,-4.0093043
25.59,-4.220162
25.6,-4.2242103
25.61,-4.5411289
25.62,-2.8066483
25.63,-4.9433648
25.64,-4.9779854
25.65,-4.3320262
25.66,-4.4389622
25.67,-3.8675575
25.68,-4.5698958
25.69,-5.0494814
25.7,-4.475683
25.71,-3.9524367
25.72,-3.9949637
25.73,-4.995203
25.74,-4.5248169
25.75,-4.2410043
25.76,-3.2158539
25.77,-3.6116644
25.78,-3.452522
25.79,-3.3866852
25.8,-4.4075432
25.81,-4.5196506
25.82,-4.5438573
25.83,-4.117845
25.84,-4.7356039
25.85,-4.8034859
25.86,-4.6003195
25.87,-4.2561327
25.88,-4.2237294
25.89,-3.9578438
25.9,-4.130286
25.91,-4.2362615
25.92,-2.9844325
25.93,-0.75230342
25.94,-4.3653742
25.95,-4.2126033
25.96,-3.7331545
25.97,-4.1667143
25.98,-4.3484664
25.99,-2.476572
26,-4.0493661
26.01,-2.8371305
26.02,-4.9134305
26.03,-0.49177932
26.04,-3.2675444
26.05,-4.4920603
26.06,-4.5052621
26.07,-4.320205
26.08,-4.2534999
26.09,-5.0965111
26.1,-4.59878
26.11,-4.1398823
26.12,-4.1203164
26.13,-5.0725329
26.14,-4.6292483
26.15,-4.4509946
26.16,-4.4355669
26.17,-3.8402098
26.18,-4.3920206
26.19,-4.3551475
26.2,-4.1211842
26.21,-4.1638666
26.22,-3.1484365
26.23,-4.143272
26.24,-4.435896
26.25,-4.1073099
26.26,-3.4726036
26.27,-4.3962822
26.28,-5.1742706
26.29,-4.2089542
26.3,-4.1095662
26.31,-3.7822611
26.32,-3.8413213
26.33,-3.8718272
26.34,-3.6888109
26.35,-4.2989052
26.36,-2.9671742
26.37,-3.862973
26.38,-4.1907148
26.39,-3.9064448
26.4,-4.2573813
26.41,-4.5079388
26.42,-4.5368291
26.43,-4.3981312
26.44,-5.0201716
26.45,-4.7534558
26.46,-4.0215019
26.47,-4.3483931
26.48,-4.1860554
26.49,-0.14007941
26.5,-4.5710476
26.51,-3.3894329
26.52,-3.7477361
26.53,-4.0014846
26.54,-4.094781
26.55,-3.3515261
26.56,-4.4053568
26.57,-4.2519177
26.58,-3.6869934
26.59,-3.8909407
26.6,-4.139271
26.61,-3.4752739
26.62,-4.113127
26.63,-2.3782928
26.64,-4.7381344
26.65,-4.8087475
26.66,-4.2325839
26.67,-4.0873549
26.68,-4.3388391
26.69,-3.6908482
26.7,-3.7392419
26.71,-3.4684036
26.72,-4.5048823
26.73,-3.9968965
26.74,-3.5888767
26.75,-4.6269735
26.76,-3.3823204
26.77,-4.4579287
26.78,-4.5795137
26.79,-3.8182218
26.8,-3.0572661
26.81,-4.5981237
26.82,-4.407515
26.83,-3.8785111
26.84,-4.1797241
26.85,-4.3917948
26.86,-4.4743339
26.87,-4.1647571
26.88,-4.1422004
26.89,-4.4989672
26.9,-4.4048756
26.91,-3.7578064
26.92,-4.1161274
26.93,-4.0385839
26.94,-3.1968788
26.95,-4.8230492
26.96,-3.8899983
26.97,-2.866852
26.98,-4.0959835
26.99,-4.6834272
27,-4.1245794
27.01,-4.0440929
27.02,-4.3104599
27.03,-4.3361289
27.04,-3.9514344
27.05,-4.3550308
27.06,-4.4200143
27.07,-4.4544203
27.08,-3.6821909
27.09,-4.3911353
27.1,-4.0377706
27.11,-4.3940618
27.12,-4.2463329
27.13,-3.1824143
27.14,-4.0887629
27.15,-3.1819874
27.16,-4.4333214
27.17,-4.5336666
27.18,-4.0317988
27.19,-3.7029629
27.2,-4.3843996
27.21,-3.398201
27.22,-4.2122853
27.23,-3.7681415
27.24,-4.3330939
27.25,-3.9748224
27.26,-3.9250942
27.27,-4.4446008
27.28,-4.2561787
27.29,-4.1970674
27.3,-4.0632907
27.31,-3.2246269
27.32,-4.4423158
27.33,-4.6194556
27.34,-4.347531
27.35,-4.1540149
27.36,-4.6911547
27.37,-2.2949741
27.38,-4.8596457
27.39,-4.261813
27.4,-4.3623863
27.41,-3.9588278
27.42,-4.2104103
27.43,-4.7138026
27.44,-4.1618547
27.45,-4.0543453
27.46,-4.3487131
27.47,-4.5557149
27.48,-4.1488547
27.49,-3.6705011
27.5,-4.6411689
27.51,-4.373743
27.52,-3.7022768
27.53,-4.1212465
27.54,-2.5131176
27.55,-4.0724713
27.56,0.32179512
27.57,-2.6221347
27.58,-4.1155355
27.59,-3.757047
27.6,-4.0489837
27.61,-4.3759842
27.62,-4.2394567
27.63,-4.5738687
27.64,-4.1315959
27.65,-2.720505
27.66,-4.1738395
27.67,-3.9553131
27.68,-3.824792
27.69,-4.3407009
27.7,-4.5352528
27.71,-4.2730231
27.72,-3.9232935
27.73,-3.8900379
27.74,-4.35047
27.75,-4.5445185
27.76,-4.2526384
27.77,-3.8762036
27.78,-4.4761984
27.79,-3.1375788
27.8,-3.1786322
27.81,-3.9243674
27.82,-4.0781204
27.83,-3.8633892
27.84,-4.3547255
27.85,-4.5062373
27.86,-4.0384241
27.87,-3.7018659
27.88,-4.4985524
27.89,-3.5057875
27.9,-4.0184414
27.91,-3.7777115
27.92,-4.3944079
27.93,-4.2090662
27.94,-3.7410038
27.95,-3.9526065
27.96,-4.3115155
27.97,-4.1424841
27.98,-4.2921691
27.99,-3.6518518
28,-4.0103839
28.01,-4.458989
28.02,-4.2712631
28.03,-4.580836
28.04,-4.4421863
28.05,-2.6758639
28.06,-2.6035124
28.07,-2.7985148
28.08,-4.4028651
28.09,-4.106493
28.1,-3.7601306
28.11,-4.198044
28.12,-4.7067517
28.13,-4.4263498
28.14,-4.291031
28.15,-4.3972801
28.16,-4.7117384
28.17,-3.6874155
28.18,-3.8211006
28.19,-2.9064411
28.2,-3.9276857
28.21,-4.5938812
28.22,-3.9443152
28.23,-3.9363967
28.24,-4.3753884
28.25,-4.1303237
28.26,-4.123094
28.27,-2.9608636
28.28,-3.9494263
28.29,-4.6300865
28.3,-1.4650986
28.31,-3.9734129
28.32,-3.6722626
28.33,-4.4599026
28.34,-3.8070269
28.35,-3.123797
28.36,-4.745322
28.37,-4.4070589
28.38,-3.5558188
28.39,-4.3169783
28.4,-4.159192
28.41,-2.4897378
28.42,-4.2712694
28.43,-4.1307649
28.44,-3.8721101
28.45,-4.5089746
28.46,-0.38663356
28.47,-3.2235511
28.48,-3.9264648
28.49,-4.1697659
28.5,-3.4271947
28.51,-4.6795386
28.52,-3.2449892
28.53,-3.9480184
28.54,-4.1056975
28.55,-4.3877942
28.56,-4.2370256
28.57,-3.1521034
28.58,-4.1814149
28.59,-4.7368158
28.6,-4.1495707
28.61,-4.4899802
28.62,-3.0521047
28.63,-4.2288641
28.64,-3.8452059
28.65,-3.8390653
28.66,-4.1787615
28.67,-4.294045
28.68,-4.32991
28.69,-3.5249804
28.7,-4.0288873
28.71,-3.63612
28.72,-4.3048052
28.73,-4.4961648
28.74,-4.0703603
28.75,-4.0551899
28.76,-3.6903006
28.77,-3.7918923
28.78,-4.4899152
28.79,-1.8238582
28.8,-3.4808546
28.81,-3.1374659
28.82,-4.8117962
28.83,-3.9919802
28.84,-4.2895701
28.85,-4.417156
28.86,-2.0814908
28.87,-5.1786051
28.88,-4.4159744
28.89,-3.8357192
28.9,-4.6555552
28.91,-4.226891
28.92,-4.5369209
28.93,-4.7264111
28.94,-3.9477468
28.95,-4.0955604
28.96,-4.285052
28.97,-3.9466963
28.98,-4.4207693
28.99,-4.1280886
29,-2.7754727
29.01,-4.7083922
29.02,-5.2845176
29.03,-2.5785531
29.04,-2.9344864
29.05,-4.04863
29.06,-3.4554798
29.07,-3.9040085
29.08,-4.0112095
29.09,-3.7853643
29.1,-3.6674588
29.11,-4.3940035
29.12,-2.8500845
29.13,-4.4083598
29.14,-4.0847616
29.15,-3.0318618
29.16,-3.4900473
29.17,-3.544503
29.18,-4.4124181
29.19,-4.2854108
29.2,-4.4064007
29.21,-4.41416
29.22,-4.6658291
29.23,-4.8459918
29.24,-2.5019613
29.25,-3.4598417
29.26,-4.4765647
29.27,-4.987323
29.28,-3.4140785
29.29,-4.1271687
29.3,-4.6843428
29.31,-4.6212503
29.32,-4.2744994
29.33,-3.4423709
29.34,-3.5578626
29.35,-3.5545256
29.36,-1.1344182
29.37,-4.4509367
29.38,-4.0506031
29.39,-3.2543035
29.4,-4.3672417
29.41,-4.1675842
29.42,-4.1810261
29.43,-4.3982496
29.44,-2.6351112
29.45,-4.7627615
29.46,-4.0080376
29.47,-3.9612928
29.48,-3.9131394
29.49,-4.3270462
29.5,-2.6095761
29.51,-4.8067075
29.52,-4.5730744
29.53,-4.0709661
29.54,-4.4404661
29.55,-4.0970087
29.56,-4.399685
29.57,-4.322556
29.58,-2.204479
29.59,-4.6533244
29.6,-4.0718522
29.61,-3.2788305
29.62,-4.1950357
29.63,-4.0543601
29.64,-3.2197665
29.65,-3.7184909
29.66,-3.8136198
29.67,-2.2670787
29.68,-4.1057751
29.69,-4.0841509
29.7,-4.0940576
29.71,-3.3522921
29.72,-4.2115316
29.73,-3.8120206
29.74,-4.4725666
29.75,-4.3014416
29.76,-3.6815649
29.77,-4.0467619
29.78,-3.6660261
29.79,-3.8874842
29.8,-3.491465
29.81,-3.2877903
29.82,-4.2291306
29.83,-4.4682597
29.84,-4.2361246
29.85,-3.3066787
29.86,-4.6164722
29.87,-4.4212524
29.88,-4.846303
29.89,-4.2179326
29.9,-2.9020369
29.91,-3.9197994
29.92,-4.5167964
29.93,-4.3112467
29.94,-1.7739961
29.95,-3.8410154
29.96,-3.4725526
29.97,-4.3803152
29.98,-2.8746617
29.99,-4.2802544
30,-4.2930275
30.01,-4.2976479
30.02,-4.3670898
30.03,-4.0738423
30.04,-4.1154461
30.05,-3.0745916
30.06,-4.163765
30.07,-4.0078291
30.08,-4.0917103
30.09,-2.2298858
30.1,-4.7898582
30.11,-2.7923801
30.12,-4.329262
30.13,-3.8257266
30.14,-4.5296831
30.15,-4.6456416
30.16,-4.0182873
30.17,-3.8498654
30.18,-4.4981103
30.19,-4.1889187
30.2,-4.4228806
30.21,-3.6480286
30.22,-4.4630255
30.23,-3.5343881
30.24,-4.1801289
30.25,-4.2877658
30.26,-4.3503659
30.27,-4.6472585
30.28,-3.849585
30.29,-4.1104974
30.3,-3.4484317
30.31,-4.5919335
30.32,-3.8631933
30.33,-2.2210342
30.34,-4.2918206
30.35,-4.0194568
30.36,-3.5487698
30.37,-4.1411827
30.38,-3.5101825
30.39,-2.5917299
30.4,-2.4404772
30.41,-3.9758277
30.42,-4.5820887
30.43,-3.7642261
30.44,-3.6552419
30.45,-3.7942887
30.46,-4.418469
30.47,-4.0252646
30.48,-4.2869236
30.49,-3.9165084
30.5,-1.992993
30.51,-4.2885463
30.52,-4.3794364
30.53,-3.2046493
30.54,-4.40408
30.55,-4.6643088
30.56,-3.9843433
30.57,-4.2644253
30.58,-4.737187
30.59,-3.0361857
30.6,-4.1745779
30.61,-4.0738462
30.62,-4.3253756
30.63,-4.0796353
30.64,-4.2284258
30.65,-3.7344118
30.66,-4.2286466
30.67,-3.1664731
30.68,-4.5773382
30.69,-4.474871
30.7,-4.3999585
30.71,-4.1494859
30.72,-1.5214303
30.73,-3.4745347
30.74,-4.2348018
30.75,-3.2400227
30.76,-4.5420772
30.77,-4.1850084
30.78,-4.4794262
30.79,-4.6651995
30.8,-4.4111709
30.81,-4.0734549
30.82,-3.5969069
30.83,-4.6268942
30.84,-3.3880201
30.85,-4.4658669
30.86,-4.2684068
30.87,-4.4912946
30.88,-4.3831228
30.89,-4.4992789
30.9,-3.3759215
30.91,-4.5222489
30.92,-3.4540049
30.93,-3.8832059
30.94,-4.6912569
30.95,-2.9514603
30.96,-3.9092639
30.97,-4.6641995
30.98,-3.5351517
30.99,-4.3414102
31,-2.1726538
31.01,-3.3382342
31.02,-3.9055656
31.03,-3.9581639
31.04,-4.1054408
31.05,-4.0905275
31.06,-1.6368871
31.07,-3.9055523
31.08,-3.2159674
31.09,-3.981646
31.1,-4.881927
31.11,-4.3580299
31.12,-4.4558625
31.13,-4.2662508
31.14,-2.8943266
31.15,-4.480211
31.16,-3.841115
31.17,-3.13608
31.18,-3.8116598
31.19,-1.6155002
31.2,-4.1047979
31.21,-4.3667566
31.22,-3.6954575
31.23,-3.9309388
31.24,-4.0736137
31.25,-3.8614968
31.26,-4.0373325
31.27,-4.4187641
31.28,-1.8560334
31.29,-1.8660751
31.3,-2.1685032
31.31,-2.3907909
31.32,-2.0287665
31.33,-2.0417994
31.34,-1.8573891
31.35,-1.4167908
31.36,-1.9037324
31.37,-2.4740891
31.38,-2.0244494
31.39,-2.0389436
31.4,-1.5205838
31.41,-1.5349159
31.42,-2.8157392
31.43,-1.9984227
31.44,-1.5399236
31.45,-1.5453349
31.46,-2.1789259
31.47,-2.329996
31.48,-2.4518843
31.49,-1.0617531
31.5,-1.7218299
31.51,-2.6387656
31.52,-1.4120825
31.53,-2.4267584
31.54,-1.5080784
31.55,-1.3323994
31.56,-1.9761019
31.57,-1.6839232
31.58,-1.6079909
31.59,-0.15851676
31.6,-1.3698762
31.61,-2.0973927
31.62,-1.6722851
31.63,0.26516677
31.64,-1.9801558
31.65,-1.5569113
31.66,-3.47976
31.67,-2.8253465
31.68,-2.5702392
31.69,-2.3977693
31.7,-3.1657283
31.71,-2.943276
31.72,-2.5220738
31.73,-3.1398276
31.74,-2.2316028
31.75,-3.1881505
31.76,-2.6023428
31.77,-3.0676482
31.78,-2.5741399
31.79,-2.6452999
31.8,-2.2019061
31.81,-2.9442867
31.82,-3.1966064
31.83,-3.2530366
31.84,-2.6575393
31.85,-3.6049718
31.86,-0.70092458
31.87,0.041873588
31.88,-3.2253729
31.89,-2.676971
31.9,-2.8451534
31.91,-3.0442282
31.92,-2.0265981
31.93,-2.9500607
31.94,-2.852319
31.95,-3.5624454
31.96,-3.2326935
31.97,-3.5768661
31.98,-2.8136912
31.99,-0.39568227
32,-3.3660937
32.01,-3.2093509
32.02,-2.5728799
32.03,-2.1839983
32.04,-1.7892425
32.05,-0.54557656
32.06,-2.866402
32.07,-2.4998261
32.08,-2.087895
32.09,-0.53523738
32.1,1.0136974
32.11,-0.99960125
32.12,1.165232
32.13,-0.61898983
32.14,-2.0729807
32.15,-1.3752685
32.16,0.16310549
32.17,-0.78298437
32.18,-2.4968951
32.19,-2.236484
32.2,-2.0342983
32.21,-2.2225544
32.22,-2.1169908
32.23,-2.4115236
32.24,-3.3436464
32.25,-1.4738916
32.26,-2.0959075
32.27,-2.5419846
32.28,-1.5474004
32.29,-0.25136384
32.3,-1.4949265
32.31,-2.1379589
32.32,-3.9683919
32.33,0.047022634
32.34,-3.1107915
32.35,-2.83294
32.36,-2.4338032
32.37,-1.1906186
32.38,-2.8843817
32.39,-2.5752843
32.4,-3.3913202
32.41,-2.5422848
32.42,-2.2426599
32.43,-2.3190237
32.44,-3.5775739
32.45,-2.7043042
32.46,-3.1723845
32.47,-3.4225963
32.48,-1.8042341
32.49,-2.6735579
32.5,-2.328909
32.51,-3.2764539
32.52,0.22816202
32.53,-2.560587
32.54,-2.081193
32.55,-2.3107099
32.56,-2.9990216
32.57,-2.9608059
32.58,-2.3940275
32.59,-3.0280613
32.6,-3.1245385
32.61,-2.0413406
32.62,-2.8332368
32.63,-3.3425566
32.64,-3.1055832
32.65,-3.3153631
32.66,-3.0347634
32.67,-2.5314039
32.68,-3.2815843
32.69,-2.6853161
32.7,-2.9069194
32.71,-3.2347388
32.72,-2.1643917
32.73,-3.1241932
32.74,-2.9398089
32.75,-2.5609355
32.76,-3.0352931
32.77,-3.1572519
32.78,-3.8320543
32.79,-3.4051035
32.8,-3.2532863
32.81,-2.4533096
32.82,-1.0992925
32.83,-2.6148055
32.84,-1.8950145
32.85,-3.177878
32.86,-1.6815693
32.87,-2.1486272
32.88,-1.5520538
32.89,-2.047128
32.9,-2.1543884
32.91,-1.7570447
32.92,-1.9621675
32.93,-1.563193
32.94,-1.8891906
32.95,-0.9694096
32.96,-1.9720958
32.97,-2.649061
32.98,-2.5652844
32.99,-1.9587176
33,-1.560164
33.01,-1.4925636
33.02,-2.5519569
33.03,-2.3483528
33.04,-1.8968653
33.05,-3.1762591
33.06,-1.3656122
33.07,-2.1682389
33.08,-1.7844624
33.09,-1.6013192
33.1,-0.93391769
33.11,-2.2719097
33.12,-1.8675208
33.13,-1.4474155
33.14,-1.7127074
33.15,-0.80521594
33.16,0.20466254
33.17,-1.9035605
33.18,-2.1007998
33.19,-1.4562359
33.2,-2.0332124
33.21,-1.6197036
33.22,-1.5257429
33.23,-2.0579402
33.24,-1.9933269
33.25,-1.7165609
33.26,-2.3853425
33.27,-1.7827542
33.28,-1.9886227
33.29,-1.9923118
33.3,-2.5276991
33.31,-1.1445239
33.32,0.59702818
33.33,-1.7933439
33.34,-2.2043009
33.35,-2.1349974
33.36,-2.3727734
33.37,-1.8557831
33.38,-2.5708929
33.39,-2.9538368
33.4,-3.0057701
33.41,-3.1123406
33.42,-2.5733602
33.43,-3.1530995
33.44,-3.0862001
33.45,-2.7288596
33.46,-3.5429866
33.47,-3.5050115
33.48,-2.6569077
33.49,-3.1501496
33.5,-2.932115
33.51,-2.115623
33.52,-3.983659
33.53,-2.9467659
33.54,-2.5635156
33.55,-2.4285691
33.56,-3.8845671
33.57,-3.4245396
33.58,-3.1773306
33.59,-3.570806
33.6,-1.5011042
33.61,-2.10798
33.62,-1.7866495
33.63,-1.849798
33.64,-1.8199513
33.65,-1.8877671
33.66,-2.5535852
33.67,-1.8077527
33.68,-2.4077024
33.69,-2.3286585
33.7,-2.126085
33.71,-1.7936079
33.72,-1.2157963
33.73,-2.5311304
33.74,-1.8501474
33.75,-2.0693971
33.76,-1.6635063
33.77,-2.3966974
33.78,-2.7448528
33.79,-2.8111321
33.8,-1.1745234
33.81,-2.0455311
33.82,-2.9056114
33.83,-2.3280393
33.84,-2.0382579
33.85,-1.8251832
33.86,-1.5291418
33.87,-3.0434822
33.88,-1.7342445
33.89,-2.0854068
33.9,-2.2342663
33.91,-3.7829557
33.92,-1.0307164
33.93,0.27910259
33.94,-2.7781124
33.95,-2.4033549
33.96,-1.7950693
33.97,-1.2962297
33.98,-2.696168
33.99,-2.7090169
34,-2.0806734
34.01,-1.8865572
34.02,-3.1396703
34.03,-2.1670301
34.04,-2.2108131
34.05,-1.7921956
34.06,-3.3844125
34.07,-2.5191222
34.08,-2.6109514
34.09,-2.1467255
34.1,-2.625734
34.11,-2.452741
34.12,-2.3505262
34.13,-2.0857695
34.14,-3.4217384
34.15,-2.1794244
34.16,-3.1254016
34.17,-2.9797564
34.18,-2.9245334
34.19,-3.0222065
34.2,-2.6119322
34.21,-2.035386
34.22,-2.3509327
34.23,-2.264745
34.24,-3.4582188
34.25,-1.285851
34.26,-2.9587123
34.27,-2.9926965
34.28,-1.8842392
34.29,-3.0132579
34.3,0.89950945
34.31,-0.13026514
34.32,-3.888817
34.33,0.15317457
34.34,-1.9384504
34.35,-1.0111418
34.36,-2.0191654
34.37,-2.7217317
34.38,-2.5533929
34.39,-2.2922399
34.4,-2.2871323
34.41,-2.8915318
34.42,-2.477361
34.43,-2.6056532
34.44,-2.890036
34.45,-2.6327159
34.46,-2.7966916
34.47,-2.584429
34.48,-2.301473
34.49,-2.5824097
34.5,-1.7071117
34.51,-2.918727
34.52,-2.5846389
34.53,-2.0452903
34.54,-2.6733972
34.55,-2.6312893
34.56,-3.0160657
34.57,-2.9204781
34.58,-2.3673232
34.59,-2.762187
34.6,-2.5595514
34.61,-3.3974776
34.62,-2.2278006
34.63,-3.0268277
34.64,-2.6216442
34.65,-2.8000014
34.66,-2.9663573
34.67,-2.6880162
34.68,-2.6149382
34.69,-2.6420136
34.7,-2.3546491
34.71,-1.5850339
34.72,-2.6682683
34.73,-0.86038166
34.74,-2.6534246
34.75,-2.1016784
34.76,-1.1612431
34.77,-3.2244942
34.78,-3.4674647
34.79,-2.2436804
34.8,-3.629871
34.81,-2.5132453
34.82,-1.1312926
34.83,-1.8497048
34.84,-2.431225
34.85,-2.2817279
34.86,-2.2615843
34.87,-2.3306828
34.88,-2.6096322
34.89,-2.7879452
34.9,-2.2433056
34.91,-1.2782271
34.92,-2.6347128
34.93,-3.126437
34.94,-3.2642281
34.95,-2.5731662
34.96,-3.0256957
34.97,-3.0725239
34.98,-2.2507494
34.99,-2.6186793
35,-2.8938895
35.01,-1.9415623
35.02,-2.4406847
35.03,-2.2368729
35.04,-1.8464537
35.05,-2.5727103
35.06,-2.8535069
35.07,-2.2644137
35.08,-2.2215869
35.09,-2.4447653
35.1,-2.6690292
35.11,-2.6009048
35.12,-2.086126
35.13,-2.3777368
35.14,-2.4591114
35.15,-2.6639115
35.16,-3.0158519
35.17,-2.4586714
35.18,-2.6631166
35.19,-2.6784469
35.2,-0.89313085
35.21,-2.457217
35.22,-2.2475022
35.23,-1.3426436
35.24,-2.2139174
35.25,-1.6910917
35.26,-1.9670049
35.27,-2.1272567
35.28,-1.9478389
35.29,-0.56094497
35.3,-0.34889443
35.31,-1.0292434
35.32,-1.915403
35.33,-0.83472131
35.34,-0.48648222
35.35,-2.3906821
35.36,-2.4786651
35.37,-2.2058255
35.38,-2.6271035
35.39,-2.637881
35.4,-2.9658006
35.41,0.13048047
35.42,-2.8326541
35.43,-3.2451083
35.44,-2.8126436
35.45,-2.6341455
35.46,-2.4596622
35.47,-0.22813731
35.48,-2.558797
35.49,-2.3563391
35.5,-2.5997749
35.51,-1.9482651
35.52,-1.9050704
35.53,-1.3496895
35.54,-1.5144222
35.55,-2.2463501
35.56,-1.1168038
35.57,-2.6327572
35.58,-1.2861672
35.59,-1.6460991
35.6,-1.5143454
35.61,-1.906279
35.62,-2.7881846
35.63,-1.4641536
35.64,-0.78326551
35.65,-1.6161226
35.66,-1.7800678
35.67,-1.6616893
35.68,-1.1876115
35.69,-2.3503792
35.7,-1.1838624
35.71,-1.7986458
35.72,-0.86155888
35.73,-1.8626396
35.74,-3.2927684
35.75,-2.3074771
35.76,-1.7678553
35.77,-2.7716238
35.78,-1.6328096
35.79,-2.4983887
35.8,-2.5224477
35.81,-1.4838033
35.82,-2.1824784
35.83,-2.0243109
35.84,-2.3120259
35.85,-2.7063129
35.86,-1.9062478
35.87,-0.73870882
35.88,-2.6567572
35.89,-2.0913489
35.9,-0.69641865
35.91,-1.9557876
35.92,-1.0059035
35.93,-3.3719112
35.94,-1.5352113
35.95,-3.3147936
35.96,-1.7818557
35.97,-2.111337
35.98,-1.8377897
35.99,-1.7612693
36,-1.9579575
36.01,-2.5407183
36.02,-2.1349238
36.03,-3.0143038
36.04,-2.0902462
36.05,-2.2310245
36.06,-0.63370136
36.07,-1.7715234
36.08,-2.5015251
36.09,-2.5888907
36.1,-1.3608758
36.11,-1.1447598
36.12,-1.5311241
36.13,-1.3046266
36.14,-1.3153675
36.15,-0.87062648
36.16,-1.3389386
36.17,-1.6286981
36.18,-1.4507418
36.19,-1.6257514
36.2,-1.3481984
36.21,-2.2018754
36.22,-1.3403185
36.23,-1.4735833
36.24,-1.7358314
36.25,-1.3103039
36.26,-1.3175573
36.27,-1.2365686
36.28,-1.2905793
36.29,-2.5422645
36.3,-1.6291029
36.31,-1.8027555
36.32,-1.8260974
36.33,-2.0926597
36.34,-2.1307264
36.35,-1.4823449
36.36,-1.3912333
36.37,-1.2852854
36.38,-1.2743013
36.39,-1.2196221
36.4,-1.8684329
36.41,-1.378848
36.42,-1.6504348
36.43,-2.535209
36.44,-1.3253966
36.45,-2.2303298
36.46,-1.7077764
36.47,-2.0714819
36.48,-2.7307045
36.49,-1.0418981
36.5,-1.3544691
36.51,-2.4685535
36.52,-2.0400248
36.53,-0.72546325
36.54,-1.2001305
36.55,-2.5550244
36.56,-1.4863734
36.57,-2.9415433
36.58,-0.32251878
36.59,-2.8696575
36.6,-2.632741
36.61,-2.5205946
36.62,-1.9779837
36.63,-1.8841623
36.64,-1.5181259
36.65,-1.6283925
36.66,-1.7956317
36.67,-2.3748227
36.68,-2.4636457
36.69,-1.926674
36.7,-1.1880093
36.71,-2.1299261
36.72,-2.2245341
36.73,-1.5470868
36.74,-1.013508
36.75,0.21964166
36.76,-2.7580088
36.77,-3.5968911
36.78,-2.009743
36.79,-2.2517406
36.8,-1.6869617
36.81,-2.3319769
36.82,-3.9966692
36.83,-1.7472858
36.84,-2.074109
36.85,-2.1765485
36.86,-2.3484035
36.87,-2.0516284
36.88,-1.14258
36.89,-2.7673537
36.9,-1.999302
36.91,-1.5499938
36.92,-1.7881863
36.93,-1.5988921
36.94,-2.6256789
36.95,-1.7220297
36.96,-2.9404725
36.97,-1.9401239
36.98,-2.0504504
36.99,-2.353494
37,-3.182627
37.01,-2.2318003
37.02,-1.5258982
37.03,-2.0643222
37.04,-2.211932
37.05,-1.6010504
37.06,-2.6830016
37.07,-2.2692554
37.08,-2.1987877
37.09,-2.587078
37.1,-2.1579102
37.11,-2.7657935
37.12,-2.833087
37.13,-2.548252
37.14,-2.5949591
37.15,-2.9959924
37.16,-2.2037331
37.17,-2.6685163
37.18,-2.8896371
37.19,-2.7062766
37.2,-2.6879348
37.21,-2.4520687
37.22,-2.2093396
37.23,-0.068896368
37.24,-2.0643078
37.25,-2.1067611
37.26,-2.1272548
37.27,-2.0326725
37.28,-1.7805405
37.29,-2.4733952
37.3,-1.0791552
37.31,-3.4264142
37.32,-1.9543785
37.33,-2.4763842
37.34,-2.2341387
37.35,-1.929134
37.36,-2.3006449
37.37,-1.8859748
37.38,-1.4924817
37.39,-1.8216254
37.4,-1.4630184
37.41,-2.0199068
37.42,-0.81616629
37.43,-1.5693355
37.44,-1.6274384
37.45,-2.0072642
37.46,-2.3268276
37.47,-2.3900635
37.48,-1.8568246
37.49,-1.7753445
37.5,-2.0673653
37.51,0.39270243
37.52,0.53192465
37.53,-2.3944893
37.54,-2.4168349
37.55,-2.9859363
37.56,-2.9282915
37.57,-3.2747558
37.58,-2.3483514
37.59,-2.8550053
37.6,-3.1227974
37.61,-2.4971501
37.62,-2.9187671
37.63,-2.2149562
37.64,-2.884519
37.65,-2.147756
37.66,-1.1094889
37.67,-1.5635966
37.68,-0.71375383
37.69,-2.6591292
37.7,-2.792309
37.71,-3.0213796
37.72,-3.2934451
37.73,-3.0628152
37.74,-2.9540415
37.75,-2.7232049
37.76,-3.1873763
37.77,-2.7484461
37.78,-2.3923125
37.79,-2.1697031
37.8,-2.7061036
37.81,-2.5897962
37.82,-3.2995829
37.83,-2.4214383
37.84,-2.947437
37.85,-3.2684072
37.86,-2.05134
37.87,-2.2128326
37.88,-2.0174297
37.89,-2.4098535
37.9,-2.5085022
37.91,-3.2615823
37.92,-3.3415579
37.93,-2.2559977
37.94,-2.2999395
37.95,-2.337855
37.96,-2.0205155
37.97,-3.1324298
37.98,-1.4798439
37.99,-3.2834914
38,-3.0893419
38.01,-2.4948736
38.02,-2.8317591
38.03,-2.7127183
38.04,-3.1882157
38.05,-3.1851655
38.06,-2.7088051
38.07,-1.4858352
38.08,-2.2599621
38.09,-3.1589352
38.1,-2.2742029
38.11,-3.5606657
38.12,-2.5924525
38.13,-3.6808312
38.14,-1.8303903
38.15,-2.7458823
38.16,-1.7982818
38.17,-3.2534363
38.18,-2.1336373
38.19,-2.3582647
38.2,-1.8614339
38.21,-3.4093357
38.22,-2.7244359
38.23,-0.61603831
38.24,0.24337805
38.25,-4.5224023
38.26,-3.7353782
38.27,-1.509766
38.28,-0.12320811
38.29,-1.5889044
38.3,-2.3827968
38.31,-2.1910629
38.32,-2.0024761
38.33,-0.18072288
38.34,-1.7133172
38.35,-1.362259
38.36,-1.467612
38.37,-2.246191
38.38,-1.2445127
38.39,-1.60257
38.4,-1.766882
38.41,-1.560584
38.42,-2.5303284
38.43,-2.1010184
38.44,-1.3010617
38.45,-2.7320995
38.46,-0.83639872
38.47,0.16074478
38.48,0.36769572
38.49,1.3276799
38.5,0.37212118
38.51,-2.6923158
38.52,-2.6707983
38.53,0.11340987
38.54,1.8997982
38.55,-0.96121171
38.56,1.2498578
38.57,-0.917976
38.58,-2.9138626
38.59,-1.6144197
38.6,-3.1022178
38.61,-2.8561052
38.62,-0.69000015
38.63,-1.1739622
38.64,-2.5484637
38.65,-2.5095917
38.66,-2.9051281
38.67,0.3090789
38.68,0.70192785
38.69,-1.6038403
38.7,-2.8985317
38.71,-0.85832445
38.72,-2.7650163
38.73,-1.465726
38.74,-1.9792415
38.75,-1.2318416
38.76,-3.1279755
38.77,-2.5139729
38.78,-2.422475
38.79,-2.8602975
38.8,-1.7729401
38.81,-3.5679144
38.82,-2.5584981
38.83,-3.1226991
38.84,-2.9800564
38.85,-2.2132569
38.86,-1.4525363
38.87,-2.5649035
38.88,-1.4629514
38.89,-2.0101507
38.9,-3.077029
38.91,-2.4881353
38.92,-2.5370657
38.93,-3.1724768
38.94,-2.4699167
38.95,-3.194187
38.96,0.43398245
38.97,-2.1148987
38.98,-2.6603709
38.99,-2.3485036
39,-2.4393294
39.01,-2.8011847
39.02,-2.5310806
39.03,-2.6449267
39.04,-1.5339866
39.05,0.15608647
39.06,-1.5802913
39.07,-1.784022
39.08,-2.1055782
39.09,-1.954548
39.1,-2.3627479
39.11,-3.0979003
39.12,-2.7425
39.13,-3.7388862
39.14,0.060252494
39.15,-0.94504344
39.16,-0.14986302
39.17,0.071677727
39.18,-3.4151681
39.19,-1.5509736
39.2,-4.4082613
39.21,-3.18789
39.22,1.5192779
39.23,-0.18208264
39.24,-3.4055157
39.25,1.0137141
39.26,-1.9121498
39.27,-1.4990576
39.28,-1.9451122
39.29,-2.7810913
39.3,-3.2289775
39.31,-2.9463089
39.32,-0.7921317
39.33,-3.8710214
39.34,-1.7803012
39.35,-3.1895364
39.36,-2.3640125
39.37,-3.5100467
39.38,-3.6490415
39.39,-2.1356175
39.4,-2.394042
39.41,-3.9787027
39.42,-2.0644353
39.43,-3.754378
39.44,-1.7596055
39.45,-2.0423072
39.46,-2.1029493
39.47,-2.6255144
39.48,-2.2707266
39.49,-2.131419
39.5,-1.728797
39.51,-1.9797571
39.52,-1.5164207
39.53,-1.9571294
39.54,-1.9693113
39.55,-1.4323303
39.56,-2.1791773
39.57,-1.8283633
39.58,-1.3642902
39.59,-1.7578017
39.6,-2.0278874
39.61,-1.3791807
39.62,-1.4379331
39.63,-1.7425415
39.64,-1.9537028
39.65,-1.8179403
39.66,-1.4598098
39.67,-2.2447237
39.68,-1.5152113
39.69,-1.9034201
39.7,-1.6795545
39.71,-2.2551968
39.72,-1.3593769
39.73,-2.016428
39.74,-1.6849219
39.75,-2.8136641
39.76,0.26024429
39.77,-3.8350809
39.78,-3.2099901
39.79,-2.4068606
39.8,-2.2732485
39.81,-2.2132071
39.82,-1.502821
39.83,-1.4218354
39.84,-0.16418976
39.85,-2.5164946
39.86,-2.7973319
39.87,-1.3680813
39.88,-2.3503581
39.89,-2.0870036
39.9,-1.8962127
39.91,-2.2550768
39.92,-2.6937867
39.93,-2.1484577
39.94,-2.4980482
39.95,-2.3018603
39.96,-1.7635652
39.97,-2.0296266
39.98,-2.1690746
39.99,-2.9555148
40,-2.5163976
40.01,-2.5579789
40.02,-1.7448455
40.03,-1.8012236
40.04,-2.2590457
40.05,-3.2930604
40.06,-2.5469842
40.07,-2.3865471
40.08,-3.5812924
40.09,-1.8151794
40.1,-1.8149323
40.11,-3.0529124
40.12,-2.7953613
40.13,-2.6331255
40.14,-2.6042179
40.15,-2.8348639
40.16,-1.5597054
40.17,-1.8426913
40.18,-2.8000268
40.19,-1.815491
40.2,-2.1218918
40.21,-2.4558312
40.22,-2.5214232
40.23,-1.6618688
40.24,-2.4051724
40.25,-2.9941645
40.26,-2.2783937
40.27,-3.5139892
40.28,-2.5389261
40.29,-2.463015
40.3,-2.8144521
40.31,-3.0535034
40.32,-3.032928
40.33,-2.5078742
40.34,-2.021293
40.35,-3.3144715
40.36,-2.4243427
40.37,-2.3656965
40.38,-1.7446178
40.39,-2.3529053
40.4,-2.9987461
40.41,-3.5625913
40.42,-2.3402621
40.43,-2.2651361
40.44,-2.5079215
40.45,-2.7190146
40.46,-2.7421282
40.47,-1.9011846
40.48,-0.90582579
40.49,-1.6193784
40.5,-2.7749655
40.51,-1.4468309
40.52,-3.2109797
40.53,-2.5634102
40.54,-2.6359757
40.55,-3.020141
40.56,-2.8986986
40.57,-1.341044
40.58,-3.2418152
40.59,-2.5706101
40.6,-2.6718725
40.61,-3.3301905
40.62,-3.5726979
40.63,-1.7039129
40.64,-2.7591729
40.65,-2.8994045
40.66,-2.8105108
40.67,-3.5916866
40.68,-2.032754
40.69,-2.8350422
40.7,-2.285185
40.71,-2.5909053
40.72,-2.8415732
40.73,-3.1603279
40.74,-3.0316174
40.75,-2.9540528
40.76,-2.4105856
40.77,-2.3907746
40.78,-1.8624652
40.79,-2.5280201
40.8,-1.8234356
40.81,-2.7231097
40.82,-3.3173177
40.83,-2.7763166
40.84,-1.6207198
40.85,-3.4302453
40.86,-3.5632475
40.87,-3.2854916
40.88,-3.226578
40.89,-3.4275541
40.9,-2.7370623
40.91,-3.2266767
40.92,-3.4205061
40.93,-3.1052082
40.94,-2.78091
40.95,-3.9185507
40.96,-1.0809135
40.97,-2.5014927
40.98,-3.6618524
40.99,-2.0634061
41,-2.5685402
41.01,-1.7611831
41.02,-2.2536666
41.03,1.8200795
41.04,-3.1595531
41.05,-2.5331246
41.06,-2.6169416
41.07,-2.695165
41.08,-1.3038312
41.09,-2.3781281
41.1,-2.4937541
41.11,-1.9764154
41.12,-2.5552685
41.13,-1.2755803
41.14,-1.8289625
41.15,-2.6019751
41.16,-2.1142966
41.17,-1.3810208
41.18,-2.4425524
41.19,-2.499262
41.2,-1.2048918
41.21,-2.7854993
41.22,-1.226714
41.23,-1.7834141
41.24,-2.2231677
41.25,-2.7387018
41.26,-2.2659174
41.27,-1.7905145
41.28,-3.5685705
41.29,-3.5340522
41.3,-2.926143
41.31,-2.5916032
41.32,-1.7349083
41.33,-3.3858378
41.34,-3.2811175
41.35,-2.6946847
41.36,-2.7934739
41.37,-2.5622956
41.38,-2.6917772
41.39,-2.677769
41.4,-2.8720882
41.41,-0.96447641
41.42,-2.0180612
41.43,-1.3673426
41.44,-1.2584595
41.45,-1.6171852
41.46,-1.5349169
41.47,-1.610226
41.48,-1.1156071
41.49,-1.7985897
41.5,-2.1404512
41.51,-2.4436345
41.52,-2.9862693
41.53,-2.5663432
41.54,-3.4242737
41.55,-2.4600999
41.56,-2.0844567
41.57,-3.2976804
41.58,-2.6558669
41.59,-2.8124911
41.6,-2.6369874
41.61,-3.0356298
41.62,-3.1840744
41.63,-3.3133999
41.64,-1.8156185
41.65,-2.2908235
41.66,-3.3588655
41.67,-2.7664713
41.68,-2.9601406
41.69,-1.7597279
41.7,-1.546632
41.71,-2.5639644
41.72,-2.6285362
41.73,-3.077933
41.74,-1.8541657
41.75,-2.577607
41.76,-2.5393208
41.77,-2.5520173
41.78,-3.9789272
41.79,-2.8966714
41.8,-2.2365352
41.81,-1.8973487
41.82,-2.3738127
41.83,-2.857104
41.84,-2.3254008
41.85,-3.105648
41.86,-3.0556033
41.87,-2.5271255
41.88,-1.4770328
41.89,-2.6713296
41.9,-2.4687902
41.91,-2.1649066
41.92,-2.7247174
41.93,-1.7792593
41.94,-2.3367137
41.95,-2.1151156
41.96,-2.8158437
41.97,-2.1724514
41.98,-1.5191684
41.99,-1.9326359
42,-1.662757
42.01,-1.6786084
42.02,-2.2618709
42.03,-1.7241815
42.04,-1.6180171
42.05,-1.5485687
42.06,-1.3772659
42.07,-1.5902934
42.08,-1.786792
42.09,-1.9202204
42.1,-2.1812168
42.11,-1.6878329
42.12,-2.235425
42.13,-0.74836142
42.14,-2.0926451
42.15,-2.144546
42.16,-0.90340794
42.17,-1.5973039
42.18,-1.3704286
42.19,-1.2559683
42.2,-2.0630627
42.21,-2.0022117
42.22,-2.0616934
42.23,-1.4457775
42.24,-1.8133055
42.25,-1.7483006
42.26,-1.6393322
42.27,-1.4775463
42.28,-1.2593748
42.29,-1.5215445
42.3,-1.6466747
42.31,-1.5342233
42.32,-0.89226368
42.33,-2.0496209
42.34,-1.0606637
42.35,-1.0567507
42.36,-2.9271194
42.37,-1.4805473
42.38,-1.8848737
42.39,-1.2920065
42.4,-2.2535064
42.41,-1.3915222
42.42,-2.0651331
42.43,-2.1541436
42.44,-0.95226815
42.45,-1.0374031
42.46,-0.50663287
42.47,-1.7757473
42.48,-1.5556097
42.49,-2.5840309
42.5,-1.5732648
42.51,-0.99978721
42.52,-1.5059771
42.53,-1.9534856
42.54,-0.64934887
42.55,-2.3342707
42.56,-1.8361198
42.57,-2.4624552
42.58,-2.0518363
42.59,-1.5786663
42.6,-1.4519712
42.61,-1.4583355
42.62,-1.8446079
42.63,-0.99428378
42.64,-1.0819551
42.65,-1.7665248
42.66,-2.4503111
42.67,-1.7349584
42.68,-1.9739961
42.69,-0.70504715
42.7,-1.4281074
42.71,-2.0126565
42.72,-1.8004187
42.73,-2.5505495
42.74,-2.1159567
42.75,-2.5904624
42.76,-1.4663273
42.77,-1.5926001
42.78,-1.8949538
42.79,-1.7847038
42.8,-1.756362
42.81,-2.4851438
42.82,-2.3713707
42.83,-2.2728539
42.84,-3.0047132
42.85,-0.61880037
42.86,-2.4147479
42.87,-1.3242557
42.88,-2.1831234
42.89,-1.7035037
42.9,-1.5720586
42.91,-2.1390683
42.92,-1.6492914
42.93,-3.0419196
42.94,-1.0097572
42.95,-2.1263389
42.96,-2.23952
42.97,-3.3854834
42.98,-3.0992326
42.99,-1.8324606
43,-1.4080483
43.01,-1.6425519
43.02,-1.4578164
43.03,-0.97842868
43.04,-1.3799593
43.05,-1.6072461
43.06,-0.97735246
43.07,-2.7887841
43.08,-0.79950656
43.09,-1.9420837
43.1,-2.285825
43.11,-0.96276637
43.12,-1.5118178
43.13,-1.1708233
43.14,-2.2630538
43.15,-2.3388018
43.16,-1.8394268
43.17,-1.385786
43.18,-1.8650673
43.19,-2.474538
43.2,-1.7241423
43.21,-1.2511091
43.22,-2.4090629
43.23,-1.7572601
43.24,-0.50639231
43.25,-1.7241076
43.26,-3.0256581
43.27,-1.8934084
43.28,-1.1682872
43.29,-2.6609547
43.3,-2.565289
43.31,-1.5088274
43.32,-1.8948468
43.33,-1.7562321
43.34,-3.0189788
43.35,-2.4273435
43.36,-2.5763997
43.37,-1.9835507
43.38,-1.6737282
43.39,-2.2166194
43.4,-2.0688093
43.41,-0.76026161
43.42,-1.3359227
43.43,-1.8898523
43.44,-1.9844288
43.45,-1.9090272
43.46,-2.1660601
43.47,-2.0485124
43.48,-1.8959741
43.49,-2.1778865
43.5,-2.7311384
43.51,-1.8191928
43.52,-2.2913163
43.53,-1.5156255
43.54,-2.5888608
43.55,-2.5088516
43.56,-2.1980585
43.57,-2.8429451
43.58,-1.6588247
43.59,-3.2819711
43.6,-0.9437606
43.61,-2.698365
43.62,-2.4517254
43.63,-1.7497895
43.64,-2.6080356
43.65,-2.9497375
43.66,-3.6570022
43.67,-1.2770019
43.68,-1.2105088
43.69,-1.6281697
43.7,-2.5696878
43.71,-1.644891
43.72,-1.6486616
43.73,-1.5984759
43.74,-2.8473239
43.75,-2.3923985
43.76,-2.2721059
43.77,-2.84374
43.78,-0.9323579
43.79,-1.7866945
43.8,-2.6135521
43.81,-1.2066431
43.82,-1.5897725
43.83,-1.4830942
43.84,-2.8127619
43.85,-2.5239115
43.86,-1.5892273
43.87,-1.2687995
43.88,-2.2545725
43.89,-2.1440487
43.9,-2.1103647
43.91,-1.7398798
43.92,-2.3607738
43.93,-1.5871142
43.94,-2.3117555
43.95,-2.0082358
43.96,-2.3289338
43.97,-2.0444133
43.98,-1.9852955
43.99,-2.0006834
44,-0.84713044
44.01,-1.7212363
44.02,-1.9340853
44.03,-2.4006364
44.04,-1.8013763
44.05,-2.4696189
44.06,-2.7180778
44.07,-2.5801501
44.08,-2.1786789
44.09,-2.1994128
44.1,-1.6238875
44.11,-1.434458
44.12,-2.6259211
44.13,-2.8413325
44.14,-1.9796517
44.15,-3.0258161
44.16,-1.7844874
44.17,-1.4707556
44.18,-2.6859384
44.19,-1.972886
44.2,-2.6513578
44.21,-2.729031
44.22,-3.8920176
44.23,-1.7343533
44.24,-2.6670008
44.25,-2.5746091
44.26,-2.6097688
44.27,-2.5190391
44.28,-3.1347605
44.29,-2.4109462
44.3,-2.2214227
44.31,-1.7265314
44.32,-3.157608
44.33,-2.215785
44.34,-2.8061319
44.35,-2.8468801
44.36,-2.9436423
44.37,-2.0955688
44.38,-2.1189655
44.39,-1.782453
44.4,-2.3198827
44.41,-1.1253504
44.42,-2.4038628
44.43,-2.0641846
44.44,-1.6935804
44.45,-2.6201623
44.46,-2.5444916
44.47,-2.8665606
44.48,-1.7635925
44.49,-1.6669199
44.5,-3.3293699
44.51,-2.0197434
44.52,-2.5368682
44.53,-2.535897
44.54,-1.7777693
44.55,-2.1217975
44.56,-2.4274118
44.57,-1.9369164
44.58,-2.5015127
44.59,-2.359349
44.6,-2.3602192
44.61,-2.529558
44.62,-1.7712813
44.63,-2.6943686
44.64,-1.8705169
44.65,-1.5828273
44.66,-1.2369963
44.67,-2.7590123
44.68,-2.0146319
44.69,-2.4167192
44.7,-2.9981108
44.71,-2.1518481
44.72,-2.1605339
44.73,-2.3812344
44.74,-1.6626236
44.75,-2.3962428
44.76,-2.0541191
44.77,-2.8955097
44.78,-2.6215947
44.79,-3.0024325
44.8,-2.7349061
44.81,-2.5296189
44.82,-1.262312
44.83,-2.0939142
44.84,-2.5391268
44.85,-2.6821422
44.86,-2.1988053
44.87,-2.2082094
44.88,-3.0463672
44.89,-3.0060467
44.9,-2.9045542
44.91,-3.0846907
44.92,-2.8742923
44.93,-3.0762996
44.94,-0.63760774
44.95,-2.3894189
44.96,-1.7357668
44.97,-2.6060252
44.98,-2.594221
44.99,-3.2167415
45,-2.9791286
45.01,-2.6663097
45.02,-2.5741932
45.03,-2.5194766
45.04,-2.8415726
45.05,-1.9197143
45.06,-1.8284935
45.07,-2.3161048
45.08,-2.9136535
45.09,-3.5854654
45.1,-3.0694877
45.11,-2.9162424
45.12,-2.8722788
45.13,-2.3377237
45.14,-3.5703912
45.15,-2.260128
45.16,-2.2482616
45.17,-1.8783384
45.18,-2.3427969
45.19,-2.7233741
45.2,-3.1447854
45.21,-2.8619181
45.22,-2.1335173
45.23,-2.3211852
45.24,-2.9437166
45.25,-2.2407709
45.26,-1.216759
45.27,-3.0615118
45.28,-2.4613111
45.29,-3.0520832
45.3,-2.635449
45.31,-1.5541258
45.32,-1.2461421
45.33,-0.70557853
45.34,-0.083224801
45.35,-0.51318552
45.36,-0.020126884
45.37,-0.78582409
45.38,0.065223467
45.39,-0.38048542
45.4,0.31730129
45.41,-0.63807945
45.42,-0.48435253
45.43,-0.38630491
45.44,-0.98562275
45.45,-0.81002837
45.46,-0.21107051
45.47,-1.2059559
45.48,-0.85284681
45.49,0.36275858
45.5,-0.034168194
45.51,-0.60579095
45.52,0.2061781
45.53,0.001564183
45.54,-0.61954641
45.55,-0.25120297
45.56,-0.40653976
45.57,0.003885247
45.58,-0.18680451
45.59,-0.93626792
45.6,-0.11645922
45.61,-0.52972435
45.62,-0.40794012
45.63,0.15946692
45.64,-0.49061768
45.65,0.027186266
45.66,-0.35417443
45.67,-0.84278506
45.68,-0.057233292
45.69,-0.19685066
45.7,-0.48469034
45.71,-0.11985321
45.72,0.17954236
45.73,-0.36984711
45.74,0.98999784
45.75,-0.39794703
45.76,-0.29721297
45.77,-0.86627548
45.78,-0.27293591
45.79,-0.01338174
45.8,-0.56528688
45.81,0.41711053
45.82,0.89658226
45.83,0.70646817
45.84,0.16608249
45.85,0.65411569
45.86,-0.24661801
45.87,-0.30764425
45.88,0.79448856
45.89,-0.47745119
45.9,-0.09555342
45.91,-0.060867561
45.92,-0.43892237
45.93,-0.18834859
45.94,-0.16696249
45.95,-0.14387715
45.96,0.34313635
45.97,0.22266236
45.98,-0.88251754
45.99,-0.38943246
46,-1.0736193
46.01,0.4929705
46.02,-0.45029035
46.03,0.26210196
46.04,-0.20210557
46.05,0.10993587
46.06,0.42756533
46.07,0.29558324
46.08,0.6100936
46.09,-1.4129485
46.1,0.73410806
46.11,0.052602258
46.12,0.65850372
46.13,0.4396329
46.14,-0.24168491
46.15,0.52196751
46.16,-0.67988969
46.17,1.1002675
46.18,-0.9761762
46.19,-0.24227741
46.2,-0.48642372
46.21,-0.21983489
46.22,-0.73957022
46.23,-0.22615434
46.24,0.28610655
46.25,-1.0445652
46.26,-1.586616
46.27,-0.42708647
46.28,-1.0165149
46.29,-0.71220694
46.3,-1.1309657
46.31,-0.75688782
46.32,-0.47827107
46.33,-0.30978523
46.34,-0.32860798
46.35,-1.0259167
46.36,-0.53821049
46.37,-0.19284856
46.38,-1.1305345
46.39,-0.58985894
46.4,-0.53652479
46.41,-0.49588176
46.42,0.61309737
46.43,-0.28491772
46.44,-1.2972622
46.45,-0.093575792
46.46,-0.96981559
46.47,-0.96105136
46.48,0.17670076
46.49,-0.37532009
46.5,-0.5960616
46.51,-0.84747185
46.52,-2.3014534
46.53,-0.83615066
46.54,-0.68867326
46.55,-0.46476658
46.56,-1.0024545
46.57,0.70998277
46.58,-0.079417204
46.59,-0.94367244
46.6,0.62547492
46.61,0.24199357
46.62,-0.75425119
46.63,-0.41413767
46.64,-0.090317551
46.65,-0.56318892
46.66,0.45076397
46.67,-0.68196599
46.68,-0.34821952
46.69,0.45874935
46.7,-1.0813951
46.71,-1.0131328
46.72,-1.0027868
46.73,-1.0094737
46.74,-0.52695779
46.75,-0.93236623
46.76,-0.63329216
46.77,-1.1615608
46.78,0.20994287
46.79,-0.052425509
46.8,-1.099773
46.81,0.49570744
46.82,-1.1672544
46.83,-0.58669449
46.84,-0.41735299
46.85,-0.51817745
46.86,-0.2558305
46.87,-0.71276406
46.88,0.1359698
46.89,0.009583339
46.9,-1.0429678
46.91,-1.3425164
46.92,-1.8741585
46.93,-1.7755964
46.94,-2.1896892
46.95,-1.323526
46.96,-1.391208
46.97,-2.2347458
46.98,-2.7641902
46.99,-2.7269908
47,-1.8892655
47.01,-1.8786085
47.02,-2.9041472
47.03,-2.9431777
47.04,-2.3441917
47.05,-3.1257004
47.06,-2.5707691
47.07,-2.3350052
47.08,-2.8221909
47.09,-2.2579867
47.1,-2.9740933
47.11,-2.4635388
47.12,-2.445929
47.13,-2.8690843
47.14,-2.4572808
47.15,-2.2467152
47.16,-2.6552291
47.17,-1.045248
47.18,-1.0142434
47.19,-1.0451883
47.2,-2.6494569
47.21,-2.7837778
47.22,-2.8816478
47.23,-2.8435365
47.24,-2.7929021
47.25,-2.7290984
47.26,-2.1902907
47.27,-1.4028129
47.28,-2.9024283
47.29,-1.4143997
47.3,-2.436738
47.31,-2.4351717
47.32,-4.4400898
47.33,-2.5742123
47.34,-2.1482696
47.35,-1.819885
47.36,-2.6146709
47.37,-2.7988899
47.38,-2.6331547
47.39,-3.1035509
47.4,-2.1743842
47.41,-1.1673898
47.42,-2.8369074
47.43,-2.5876587
47.44,-3.0208088
47.45,-2.5006312
47.46,-3.0614985
47.47,-2.8581242
47.48,-2.9967445
47.49,-2.8049976
47.5,-2.3672848
47.51,-2.4788894
47.52,-2.3502992
47.53,-2.5473681
47.54,-2.4229354
47.55,-2.5630611
47.56,-2.2003574
47.57,-3.0003738
47.58,-2.8535686
47.59,-2.804928
47.6,-1.1045581
47.61,-2.3903691
47.62,-2.692276
47.63,-2.9410727
47.64,-2.7913439
47.65,-2.7332388
47.66,-3.2126154
47.67,-2.0155833
47.68,-1.836148
47.69,-0.34528412
47.7,-1.7813989
47.71,-2.8245831
47.72,-2.9330545
47.73,-3.1231093
47.74,-2.9701265
47.75,-2.6785128
47.76,-2.0758382
47.77,-2.3623705
47.78,-2.7621476
47.79,-2.6612197
47.8,-1.0227354
47.81,0.044044662
47.82,0.2316968
47.83,0.2583246
47.84,-0.69231215
47.85,-0.43046346
47.86,0.43806209
47.87,-0.71546743
47.88,0.65954675
47.89,-0.37614029
47.9,0.14257534
47.91,0.8170313
47.92,0.33108779
47.93,-0.49803113
47.94,0.19524997
47.95,-0.45160808
47.96,-0.075076896
47.97,0.47398579
47.98,0.21958514
47.99,0.62902126
48,-0.54117976
48.01,-0.59239304
48.02,0.66481703
48.03,0.34354383
48.04,0.109332
48.05,-0.57958572
48.06,-0.69483502
48.07,-0.7876755
48.08,-1.0442382
48.09,-0.059222615
48.1,-0.53132943
48.11,-0.61738186
48.12,0.74690505
48.13,-0.98941487
48.14,-0.064391521
48.15,-0.67510025
48.16,-0.31981769
48.17,-0.69176077
48.18,0.82997842
48.19,-0.84652648
48.2,-0.38275137
48.21,0.28926163
48.22,0.056058856
48.23,0.5898329
48.24,0.17687723
48.25,-0.10657274
48.26,-0.089880887
48.27,0.43735838
48.28,-0.50089796
48.29,-2.6852564
48.3,-0.49018355
48.31,-0.42582313
48.32,0.17313284
48.33,-2.7583779
48.34,-3.132908
48.35,-4.3464153
48.36,0.8893222
48.37,-1.9760097
48.38,-0.18606395
48.39,-0.67229467
48.4,-0.056581578
48.41,-3.4963139
48.42,-2.5120691
48.43,-2.8276808
48.44,-1.2747964
48.45,-1.970931
48.46,-1.7725068
48.47,-2.2976743
48.48,-0.46587651
48.49,-1.415294
48.5,-1.4183546
48.51,-1.5015527
48.52,-1.2304996
48.53,-1.8005287
48.54,-2.0584071
48.55,-1.5002576
48.56,-1.1735586
48.57,-1.4011677
48.58,-1.5597835
48.59,-3.8019557
48.6,-1.0725018
48.61,-0.28541428
48.62,-3.4194465
48.63,-1.419396
48.64,-1.7191384
48.65,-0.94808214
48.66,-0.98588376
48.67,-1.5078055
48.68,-1.2025214
48.69,-0.81441071
48.7,-0.93035128
48.71,-1.2671628
48.72,-1.4776056
48.73,-1.1391024
48.74,-1.4314989
48.75,-1.808509
48.76,-1.7220515
48.77,-1.0847408
48.78,-1.3728823
48.79,-2.5809104
48.8,-1.0757467
48.81,-1.1289811
48.82,-1.222083
48.83,-0.44999257
48.84,0.40693516
48.85,0.21606295
48.86,-0.74498126
48.87,-2.063274
48.88,-1.5712575
48.89,-1.965934
48.9,-1.2460656
48.91,-1.8940503
48.92,-2.0242841
48.93,-2.4897179
48.94,-2.4638119
48.95,-1.838811
48.96,-2.2774786
48.97,-1.6598598
48.98,-2.047832
48.99,-2.2705939
49,-2.7352404
49.01,-2.0590251
49.02,-1.8043513
49.03,-1.2732355
49.04,-2.3431448
49.05,-1.926781
49.06,-1.969788
49.07,-1.3351884
49.08,-2.0526607
49.09,-2.8150982
49.1,-2.3717909
49.11,-2.6159655
49.12,-2.8602662
49.13,-1.5736331
49.14,-2.3573116
49.15,-2.9842497
49.16,-1.1899647
49.17,-2.7350379
49.18,-2.9126066
49.19,-3.3831671
49.2,-2.8941139
49.21,-3.3201959
49.22,-2.9503154
49.23,-3.2095289
49.24,-4.5275306
49.25,-3.2107185
49.26,-2.9639207
49.27,-2.832002
49.28,-3.0383957
49.29,-2.5658194
49.3,-2.1292725
49.31,-1.6838817
49.32,-3.1765007
49.33,-1.2788202
49.34,-2.5090777
49.35,-2.719304
49.36,-3.2790549
49.37,-2.5411022
49.38,-3.2839749
49.39,-3.3974775
49.4,-2.5382483
49.41,-3.4501445
49.42,-2.9366808
49.43,-2.2915179
49.44,-3.2467236
49.45,-1.4448575
49.46,-3.0830537
49.47,-2.611745
49.48,-2.4265612
49.49,-2.8481143
49.5,-2.1300265
49.51,-1.9236209
49.52,-1.7450976
49.53,-1.7083536
49.54,-1.5508661
49.55,-1.6493928
49.56,-1.5779183
49.57,-1.3765023
49.58,-2.4514684
49.59,-0.59403681
49.6,-1.2309387
49.61,-1.4679956
49.62,-0.79374815
49.63,-0.88421387
49.64,-1.3844343
49.65,-2.3150379
49.66,-0.9544359
49.67,-2.2709077
49.68,-1.5435585
49.69,-1.3586426
49.7,-2.3677362
49.71,-2.2907045
49.72,-2.663996
49.73,-2.0840793
49.74,-2.4915584
49.75,-1.775086
49.76,-2.7073706
49.77,-1.6939462
49.78,-0.79077106
49.79,-1.3557145
49.8,-1.6205264
49.81,-0.42099983
49.82,-1.0453979
49.83,-1.5887401
49.84,-2.9363166
49.85,-1.4998571
49.86,-2.7573841
49.87,-1.3704913
49.88,-2.1390449
49.89,-3.4941845
49.9,-2.6513
49.91,-2.4060771
49.92,-2.9872455
49.93,-2.736936
49.94,-1.7841535
49.95,-3.7487191
49.96,-3.3586047
49.97,-3.4579122
49.98,-3.0614751
